'Elapsed time','MLII','V1'
'seconds','mV','mV'
0.000,-0.695,-0.955
0.003,-0.695,-0.955
0.006,-0.695,-0.955
0.008,-0.695,-0.955
0.011,-0.695,-0.955
0.014,-0.695,-0.955
0.017,-0.695,-0.955
0.019,-0.695,-0.925
0.022,-0.695,-0.905
0.025,-0.695,-0.860
0.028,-0.700,-0.830
0.031,-0.710,-0.810
0.033,-0.700,-0.795
0.036,-0.700,-0.780
0.039,-0.685,-0.780
0.042,-0.680,-0.765
0.044,-0.670,-0.770
0.047,-0.670,-0.750
0.050,-0.665,-0.765
0.053,-0.665,-0.780
0.056,-0.670,-0.760
0.058,-0.675,-0.765
0.061,-0.680,-0.760
0.064,-0.695,-0.745
0.067,-0.695,-0.740
0.069,-0.695,-0.740
0.072,-0.690,-0.730
0.075,-0.695,-0.735
0.078,-0.705,-0.750
0.081,-0.705,-0.750
0.083,-0.730,-0.760
0.086,-0.745,-0.765
0.089,-0.750,-0.765
0.092,-0.770,-0.790
0.094,-0.765,-0.770
0.097,-0.790,-0.775
0.100,-0.770,-0.755
0.103,-0.780,-0.765
0.106,-0.785,-0.770
0.108,-0.790,-0.780
0.111,-0.800,-0.785
0.114,-0.815,-0.795
0.117,-0.840,-0.805
0.119,-0.860,-0.810
0.122,-0.875,-0.825
0.125,-0.895,-0.825
0.128,-0.905,-0.825
0.131,-0.885,-0.820
0.133,-0.885,-0.810
0.136,-0.870,-0.795
0.139,-0.860,-0.790
0.142,-0.855,-0.795
0.144,-0.865,-0.810
0.147,-0.875,-0.815
0.150,-0.890,-0.830
0.153,-0.910,-0.840
0.156,-0.925,-0.855
0.158,-0.940,-0.860
0.161,-0.940,-0.850
0.164,-0.950,-0.855
0.167,-0.955,-0.850
0.169,-0.965,-0.850
0.172,-0.980,-0.835
0.175,-0.975,-0.845
0.178,-0.985,-0.860
0.181,-1.005,-0.860
0.183,-1.025,-0.890
0.186,-1.040,-0.900
0.189,-1.045,-0.915
0.192,-1.065,-0.940
0.194,-1.080,-0.935
0.197,-1.100,-0.950
0.200,-1.105,-0.940
0.203,-1.120,-0.960
0.206,-1.115,-0.970
0.208,-1.115,-0.975
0.211,-1.135,-1.005
0.214,-1.145,-1.015
0.217,-1.165,-1.025
0.219,-1.165,-1.045
0.222,-1.170,-1.065
0.225,-1.175,-1.080
0.228,-1.140,-1.075
0.231,-1.125,-1.070
0.233,-1.090,-1.075
0.236,-1.075,-1.060
0.239,-1.040,-1.060
0.242,-1.010,-1.055
0.244,-1.000,-1.045
0.247,-0.960,-1.035
0.250,-0.935,-1.025
0.253,-0.920,-1.015
0.256,-0.895,-1.005
0.258,-0.865,-1.000
0.261,-0.840,-0.975
0.264,-0.830,-0.965
0.267,-0.800,-0.945
0.269,-0.765,-0.920
0.272,-0.735,-0.900
0.275,-0.695,-0.885
0.278,-0.680,-0.885
0.281,-0.660,-0.860
0.283,-0.650,-0.870
0.286,-0.655,-0.870
0.289,-0.625,-0.860
0.292,-0.620,-0.865
0.294,-0.615,-0.850
0.297,-0.620,-0.840
0.300,-0.610,-0.835
0.303,-0.605,-0.830
0.306,-0.595,-0.830
0.308,-0.595,-0.825
0.311,-0.590,-0.830
0.314,-0.590,-0.840
0.317,-0.615,-0.840
0.319,-0.620,-0.860
0.322,-0.625,-0.860
0.325,-0.625,-0.850
0.328,-0.615,-0.855
0.331,-0.625,-0.860
0.333,-0.620,-0.840
0.336,-0.610,-0.835
0.339,-0.615,-0.830
0.342,-0.595,-0.820
0.344,-0.600,-0.835
0.347,-0.600,-0.825
0.350,-0.610,-0.840
0.353,-0.600,-0.840
0.356,-0.605,-0.840
0.358,-0.600,-0.845
0.361,-0.605,-0.825
0.364,-0.585,-0.830
0.367,-0.575,-0.820
0.369,-0.560,-0.795
0.372,-0.560,-0.785
0.375,-0.545,-0.780
0.378,-0.555,-0.785
0.381,-0.565,-0.775
0.383,-0.570,-0.780
0.386,-0.565,-0.795
0.389,-0.555,-0.805
0.392,-0.560,-0.795
0.394,-0.555,-0.790
0.397,-0.545,-0.795
0.400,-0.550,-0.780
0.403,-0.545,-0.770
0.406,-0.540,-0.760
0.408,-0.525,-0.755
0.411,-0.530,-0.765
0.414,-0.520,-0.765
0.417,-0.505,-0.770
0.419,-0.520,-0.780
0.422,-0.535,-0.785
0.425,-0.535,-0.775
0.428,-0.525,-0.765
0.431,-0.520,-0.760
0.433,-0.505,-0.740
0.436,-0.490,-0.730
0.439,-0.480,-0.720
0.442,-0.470,-0.720
0.444,-0.470,-0.725
0.447,-0.475,-0.725
0.450,-0.485,-0.745
0.453,-0.495,-0.755
0.456,-0.505,-0.775
0.458,-0.510,-0.770
0.461,-0.510,-0.770
0.464,-0.515,-0.760
0.467,-0.520,-0.760
0.469,-0.515,-0.760
0.472,-0.515,-0.755
0.475,-0.520,-0.755
0.478,-0.530,-0.775
0.481,-0.530,-0.765
0.483,-0.540,-0.790
0.486,-0.545,-0.800
0.489,-0.550,-0.800
0.492,-0.565,-0.810
0.494,-0.565,-0.795
0.497,-0.575,-0.795
0.500,-0.570,-0.795
0.503,-0.560,-0.785
0.506,-0.565,-0.785
0.508,-0.550,-0.780
0.511,-0.555,-0.805
0.514,-0.560,-0.795
0.517,-0.575,-0.810
0.519,-0.590,-0.810
0.522,-0.585,-0.830
0.525,-0.595,-0.825
0.528,-0.615,-0.815
0.531,-0.615,-0.815
0.533,-0.605,-0.810
0.536,-0.595,-0.795
0.539,-0.585,-0.785
0.542,-0.570,-0.795
0.544,-0.575,-0.805
0.547,-0.570,-0.800
0.550,-0.585,-0.815
0.553,-0.590,-0.835
0.556,-0.595,-0.835
0.558,-0.595,-0.840
0.561,-0.585,-0.830
0.564,-0.575,-0.830
0.567,-0.560,-0.830
0.569,-0.560,-0.835
0.572,-0.565,-0.825
0.575,-0.555,-0.840
0.578,-0.555,-0.835
0.581,-0.560,-0.840
0.583,-0.575,-0.850
0.586,-0.585,-0.855
0.589,-0.585,-0.865
0.592,-0.600,-0.860
0.594,-0.605,-0.855
0.597,-0.590,-0.860
0.600,-0.590,-0.850
0.603,-0.585,-0.850
0.606,-0.560,-0.840
0.608,-0.560,-0.845
0.611,-0.545,-0.840
0.614,-0.545,-0.860
0.617,-0.535,-0.860
0.619,-0.530,-0.855
0.622,-0.545,-0.870
0.625,-0.550,-0.875
0.628,-0.555,-0.880
0.631,-0.555,-0.870
0.633,-0.550,-0.865
0.636,-0.555,-0.855
0.639,-0.565,-0.850
0.642,-0.550,-0.850
0.644,-0.560,-0.855
0.647,-0.560,-0.870
0.650,-0.570,-0.860
0.653,-0.575,-0.865
0.656,-0.575,-0.875
0.658,-0.585,-0.880
0.661,-0.580,-0.870
0.664,-0.600,-0.875
0.667,-0.590,-0.870
0.669,-0.595,-0.865
0.672,-0.580,-0.860
0.675,-0.585,-0.850
0.678,-0.585,-0.860
0.681,-0.585,-0.875
0.683,-0.590,-0.875
0.686,-0.595,-0.880
0.689,-0.615,-0.890
0.692,-0.605,-0.880
0.694,-0.590,-0.875
0.697,-0.595,-0.865
0.700,-0.590,-0.850
0.703,-0.575,-0.845
0.706,-0.570,-0.850
0.708,-0.560,-0.840
0.711,-0.560,-0.840
0.714,-0.560,-0.845
0.717,-0.560,-0.845
0.719,-0.565,-0.850
0.722,-0.560,-0.850
0.725,-0.555,-0.845
0.728,-0.555,-0.845
0.731,-0.540,-0.835
0.733,-0.540,-0.815
0.736,-0.520,-0.810
0.739,-0.510,-0.805
0.742,-0.510,-0.805
0.744,-0.505,-0.810
0.747,-0.510,-0.810
0.750,-0.505,-0.815
0.753,-0.505,-0.815
0.756,-0.505,-0.825
0.758,-0.505,-0.820
0.761,-0.520,-0.815
0.764,-0.525,-0.805
0.767,-0.520,-0.800
0.769,-0.525,-0.775
0.772,-0.535,-0.765
0.775,-0.525,-0.750
0.778,-0.540,-0.770
0.781,-0.540,-0.760
0.783,-0.560,-0.765
0.786,-0.585,-0.770
0.789,-0.600,-0.770
0.792,-0.625,-0.785
0.794,-0.640,-0.780
0.797,-0.645,-0.770
0.800,-0.630,-0.770
0.803,-0.575,-0.735
0.806,-0.450,-0.695
0.808,-0.275,-0.615
0.811,-0.075,-0.540
0.814,0.160,-0.450
0.817,0.410,-0.365
0.819,0.690,-0.295
0.822,0.965,-0.230
0.825,1.215,-0.150
0.828,1.435,-0.060
0.831,1.610,0.025
0.833,1.690,0.145
0.836,1.695,0.255
0.839,1.660,0.365
0.842,1.540,0.375
0.844,1.305,0.220
0.847,0.900,-0.125
0.850,0.370,-0.590
0.853,-0.175,-1.105
0.856,-0.585,-1.575
0.858,-0.800,-1.870
0.861,-0.860,-1.925
0.864,-0.820,-1.795
0.867,-0.745,-1.580
0.869,-0.675,-1.350
0.872,-0.630,-1.185
0.875,-0.620,-1.095
0.878,-0.640,-1.050
0.881,-0.680,-1.030
0.883,-0.710,-1.010
0.886,-0.730,-1.010
0.889,-0.740,-0.980
0.892,-0.730,-0.960
0.894,-0.730,-0.930
0.897,-0.725,-0.900
0.900,-0.715,-0.880
0.903,-0.710,-0.875
0.906,-0.720,-0.865
0.908,-0.705,-0.860
0.911,-0.710,-0.865
0.914,-0.705,-0.855
0.917,-0.720,-0.870
0.919,-0.720,-0.870
0.922,-0.745,-0.860
0.925,-0.740,-0.870
0.928,-0.755,-0.870
0.931,-0.760,-0.850
0.933,-0.750,-0.855
0.936,-0.760,-0.835
0.939,-0.765,-0.835
0.942,-0.760,-0.830
0.944,-0.775,-0.855
0.947,-0.780,-0.855
0.950,-0.805,-0.870
0.953,-0.805,-0.880
0.956,-0.815,-0.890
0.958,-0.820,-0.885
0.961,-0.810,-0.870
0.964,-0.820,-0.875
0.967,-0.825,-0.850
0.969,-0.810,-0.860
0.972,-0.810,-0.840
0.975,-0.800,-0.825
0.978,-0.785,-0.815
0.981,-0.790,-0.805
0.983,-0.795,-0.805
0.986,-0.800,-0.810
0.989,-0.810,-0.810
0.992,-0.820,-0.835
0.994,-0.830,-0.815
0.997,-0.840,-0.815
1.000,-0.840,-0.810
1.003,-0.850,-0.800
1.006,-0.850,-0.790
1.008,-0.855,-0.795
1.011,-0.865,-0.815
1.014,-0.875,-0.820
1.017,-0.880,-0.840
1.019,-0.890,-0.835
1.022,-0.890,-0.860
1.025,-0.905,-0.855
1.028,-0.910,-0.855
1.031,-0.915,-0.855
1.033,-0.910,-0.855
1.036,-0.920,-0.860
1.039,-0.915,-0.855
1.042,-0.925,-0.845
1.044,-0.940,-0.875
1.047,-0.950,-0.875
1.050,-0.975,-0.890
1.053,-0.995,-0.900
1.056,-1.020,-0.920
1.058,-1.020,-0.930
1.061,-1.035,-0.935
1.064,-1.030,-0.940
1.067,-1.040,-0.935
1.069,-1.055,-0.940
1.072,-1.065,-0.940
1.075,-1.060,-0.960
1.078,-1.085,-0.995
1.081,-1.100,-1.005
1.083,-1.100,-1.020
1.086,-1.120,-1.040
1.089,-1.150,-1.070
1.092,-1.170,-1.075
1.094,-1.175,-1.095
1.097,-1.180,-1.110
1.100,-1.195,-1.100
1.103,-1.190,-1.110
1.106,-1.195,-1.120
1.108,-1.190,-1.120
1.111,-1.195,-1.155
1.114,-1.200,-1.165
1.117,-1.205,-1.180
1.119,-1.205,-1.195
1.122,-1.205,-1.205
1.125,-1.200,-1.210
1.128,-1.165,-1.195
1.131,-1.135,-1.190
1.133,-1.085,-1.175
1.136,-1.065,-1.165
1.139,-1.015,-1.135
1.142,-0.960,-1.115
1.144,-0.930,-1.095
1.147,-0.900,-1.095
1.150,-0.865,-1.070
1.153,-0.845,-1.060
1.156,-0.815,-1.050
1.158,-0.795,-1.030
1.161,-0.775,-0.985
1.164,-0.740,-0.955
1.167,-0.710,-0.930
1.169,-0.695,-0.900
1.172,-0.680,-0.880
1.175,-0.670,-0.850
1.178,-0.665,-0.845
1.181,-0.660,-0.830
1.183,-0.675,-0.820
1.186,-0.685,-0.825
1.189,-0.690,-0.830
1.192,-0.680,-0.835
1.194,-0.675,-0.825
1.197,-0.680,-0.815
1.200,-0.660,-0.805
1.203,-0.660,-0.805
1.206,-0.640,-0.785
1.208,-0.635,-0.785
1.211,-0.625,-0.795
1.214,-0.625,-0.795
1.217,-0.620,-0.790
1.219,-0.630,-0.805
1.222,-0.625,-0.805
1.225,-0.635,-0.815
1.228,-0.640,-0.800
1.231,-0.630,-0.800
1.233,-0.625,-0.790
1.236,-0.610,-0.780
1.239,-0.600,-0.770
1.242,-0.575,-0.765
1.244,-0.580,-0.780
1.247,-0.575,-0.775
1.250,-0.565,-0.775
1.253,-0.565,-0.780
1.256,-0.575,-0.790
1.258,-0.575,-0.790
1.261,-0.575,-0.770
1.264,-0.575,-0.770
1.267,-0.590,-0.760
1.269,-0.590,-0.755
1.272,-0.605,-0.750
1.275,-0.595,-0.745
1.278,-0.595,-0.755
1.281,-0.600,-0.765
1.283,-0.610,-0.780
1.286,-0.610,-0.785
1.289,-0.610,-0.795
1.292,-0.600,-0.790
1.294,-0.595,-0.795
1.297,-0.600,-0.785
1.300,-0.590,-0.780
1.303,-0.580,-0.765
1.306,-0.565,-0.750
1.308,-0.555,-0.735
1.311,-0.545,-0.750
1.314,-0.545,-0.735
1.317,-0.550,-0.750
1.319,-0.555,-0.755
1.322,-0.540,-0.755
1.325,-0.550,-0.750
1.328,-0.545,-0.725
1.331,-0.545,-0.735
1.333,-0.530,-0.725
1.336,-0.530,-0.710
1.339,-0.535,-0.700
1.342,-0.525,-0.695
1.344,-0.525,-0.700
1.347,-0.535,-0.700
1.350,-0.550,-0.705
1.353,-0.555,-0.710
1.356,-0.575,-0.720
1.358,-0.570,-0.720
1.361,-0.570,-0.710
1.364,-0.575,-0.715
1.367,-0.560,-0.680
1.369,-0.545,-0.685
1.372,-0.540,-0.670
1.375,-0.530,-0.670
1.378,-0.525,-0.675
1.381,-0.530,-0.665
1.383,-0.530,-0.680
1.386,-0.535,-0.695
1.389,-0.550,-0.700
1.392,-0.560,-0.690
1.394,-0.560,-0.685
1.397,-0.570,-0.685
1.400,-0.560,-0.685
1.403,-0.560,-0.680
1.406,-0.555,-0.680
1.408,-0.545,-0.675
1.411,-0.545,-0.685
1.414,-0.545,-0.695
1.417,-0.545,-0.700
1.419,-0.550,-0.710
1.422,-0.560,-0.700
1.425,-0.575,-0.715
1.428,-0.580,-0.715
1.431,-0.585,-0.720
1.433,-0.600,-0.725
1.436,-0.610,-0.710
1.439,-0.620,-0.715
1.442,-0.610,-0.715
1.444,-0.630,-0.725
1.447,-0.615,-0.725
1.450,-0.615,-0.750
1.453,-0.620,-0.755
1.456,-0.620,-0.760
1.458,-0.625,-0.780
1.461,-0.630,-0.770
1.464,-0.610,-0.765
1.467,-0.605,-0.750
1.469,-0.600,-0.745
1.472,-0.590,-0.745
1.475,-0.580,-0.740
1.478,-0.565,-0.745
1.481,-0.580,-0.750
1.483,-0.575,-0.750
1.486,-0.580,-0.745
1.489,-0.585,-0.750
1.492,-0.595,-0.745
1.494,-0.600,-0.735
1.497,-0.590,-0.735
1.500,-0.585,-0.735
1.503,-0.585,-0.740
1.506,-0.580,-0.730
1.508,-0.575,-0.730
1.511,-0.570,-0.745
1.514,-0.565,-0.740
1.517,-0.570,-0.755
1.519,-0.590,-0.760
1.522,-0.595,-0.765
1.525,-0.605,-0.770
1.528,-0.595,-0.760
1.531,-0.605,-0.755
1.533,-0.590,-0.760
1.536,-0.585,-0.750
1.539,-0.585,-0.730
1.542,-0.570,-0.735
1.544,-0.565,-0.745
1.547,-0.565,-0.740
1.550,-0.565,-0.760
1.553,-0.570,-0.780
1.556,-0.575,-0.770
1.558,-0.600,-0.765
1.561,-0.610,-0.755
1.564,-0.595,-0.750
1.567,-0.590,-0.735
1.569,-0.575,-0.730
1.572,-0.570,-0.715
1.575,-0.555,-0.705
1.578,-0.555,-0.715
1.581,-0.550,-0.715
1.583,-0.545,-0.720
1.586,-0.550,-0.715
1.589,-0.560,-0.725
1.592,-0.555,-0.730
1.594,-0.550,-0.720
1.597,-0.550,-0.715
1.600,-0.545,-0.705
1.603,-0.550,-0.700
1.606,-0.535,-0.700
1.608,-0.530,-0.690
1.611,-0.550,-0.695
1.614,-0.560,-0.700
1.617,-0.560,-0.705
1.619,-0.575,-0.705
1.622,-0.575,-0.720
1.625,-0.580,-0.730
1.628,-0.585,-0.715
1.631,-0.575,-0.715
1.633,-0.575,-0.705
1.636,-0.575,-0.700
1.639,-0.570,-0.680
1.642,-0.560,-0.685
1.644,-0.560,-0.680
1.647,-0.565,-0.680
1.650,-0.575,-0.685
1.653,-0.565,-0.705
1.656,-0.575,-0.705
1.658,-0.575,-0.700
1.661,-0.580,-0.680
1.664,-0.595,-0.680
1.667,-0.610,-0.670
1.669,-0.640,-0.660
1.672,-0.620,-0.660
1.675,-0.555,-0.635
1.678,-0.455,-0.605
1.681,-0.290,-0.535
1.683,-0.085,-0.450
1.686,0.135,-0.360
1.689,0.400,-0.275
1.692,0.705,-0.185
1.694,1.005,-0.090
1.697,1.285,-0.015
1.700,1.525,0.065
1.703,1.665,0.155
1.706,1.735,0.265
1.708,1.730,0.360
1.711,1.650,0.430
1.714,1.490,0.395
1.717,1.210,0.210
1.719,0.795,-0.130
1.722,0.270,-0.580
1.725,-0.225,-1.045
1.728,-0.595,-1.465
1.731,-0.775,-1.710
1.733,-0.810,-1.780
1.736,-0.770,-1.660
1.739,-0.675,-1.460
1.742,-0.620,-1.245
1.744,-0.575,-1.095
1.747,-0.585,-1.005
1.750,-0.605,-0.960
1.753,-0.620,-0.935
1.756,-0.640,-0.910
1.758,-0.655,-0.870
1.761,-0.660,-0.850
1.764,-0.640,-0.810
1.767,-0.635,-0.780
1.769,-0.635,-0.750
1.772,-0.635,-0.715
1.775,-0.645,-0.705
1.778,-0.655,-0.700
1.781,-0.670,-0.685
1.783,-0.685,-0.705
1.786,-0.710,-0.705
1.789,-0.715,-0.710
1.792,-0.725,-0.705
1.794,-0.720,-0.700
1.797,-0.725,-0.695
1.800,-0.715,-0.680
1.803,-0.720,-0.670
1.806,-0.715,-0.665
1.808,-0.720,-0.665
1.811,-0.715,-0.665
1.814,-0.730,-0.670
1.817,-0.740,-0.675
1.819,-0.755,-0.680
1.822,-0.765,-0.690
1.825,-0.785,-0.685
1.828,-0.800,-0.670
1.831,-0.790,-0.675
1.833,-0.785,-0.670
1.836,-0.795,-0.655
1.839,-0.780,-0.645
1.842,-0.775,-0.650
1.844,-0.775,-0.650
1.847,-0.790,-0.655
1.850,-0.800,-0.665
1.853,-0.800,-0.675
1.856,-0.800,-0.690
1.858,-0.835,-0.690
1.861,-0.830,-0.675
1.864,-0.840,-0.685
1.867,-0.855,-0.660
1.869,-0.850,-0.675
1.872,-0.850,-0.660
1.875,-0.860,-0.655
1.878,-0.870,-0.675
1.881,-0.890,-0.670
1.883,-0.890,-0.690
1.886,-0.900,-0.685
1.889,-0.900,-0.705
1.892,-0.915,-0.705
1.894,-0.915,-0.705
1.897,-0.925,-0.710
1.900,-0.925,-0.700
1.903,-0.920,-0.700
1.906,-0.925,-0.690
1.908,-0.920,-0.695
1.911,-0.930,-0.700
1.914,-0.945,-0.710
1.917,-0.960,-0.715
1.919,-0.975,-0.725
1.922,-0.980,-0.735
1.925,-0.995,-0.745
1.928,-1.000,-0.750
1.931,-1.010,-0.750
1.933,-1.010,-0.755
1.936,-1.030,-0.765
1.939,-1.040,-0.770
1.942,-1.060,-0.780
1.944,-1.090,-0.810
1.947,-1.110,-0.840
1.950,-1.125,-0.845
1.953,-1.125,-0.880
1.956,-1.140,-0.905
1.958,-1.150,-0.930
1.961,-1.170,-0.925
1.964,-1.160,-0.940
1.967,-1.175,-0.940
1.969,-1.170,-0.935
1.972,-1.180,-0.945
1.975,-1.170,-0.935
1.978,-1.155,-0.955
1.981,-1.145,-0.955
1.983,-1.140,-0.955
1.986,-1.130,-0.960
1.989,-1.100,-0.955
1.992,-1.080,-0.955
1.994,-1.045,-0.935
1.997,-1.020,-0.925
2.000,-0.970,-0.900
2.003,-0.940,-0.880
2.006,-0.895,-0.845
2.008,-0.865,-0.835
2.011,-0.835,-0.820
2.014,-0.815,-0.795
2.017,-0.795,-0.800
2.019,-0.795,-0.795
2.022,-0.780,-0.790
2.025,-0.775,-0.775
2.028,-0.750,-0.755
2.031,-0.745,-0.750
2.033,-0.725,-0.725
2.036,-0.720,-0.710
2.039,-0.680,-0.695
2.042,-0.655,-0.695
2.044,-0.650,-0.695
2.047,-0.650,-0.680
2.050,-0.655,-0.685
2.053,-0.665,-0.685
2.056,-0.660,-0.695
2.058,-0.665,-0.700
2.061,-0.665,-0.690
2.064,-0.650,-0.690
2.067,-0.650,-0.685
2.069,-0.625,-0.665
2.072,-0.610,-0.660
2.075,-0.610,-0.660
2.078,-0.600,-0.670
2.081,-0.600,-0.665
2.083,-0.595,-0.675
2.086,-0.610,-0.685
2.089,-0.600,-0.685
2.092,-0.600,-0.670
2.094,-0.595,-0.665
2.097,-0.590,-0.675
2.100,-0.585,-0.665
2.103,-0.585,-0.655
2.106,-0.570,-0.650
2.108,-0.555,-0.635
2.111,-0.545,-0.650
2.114,-0.535,-0.655
2.117,-0.530,-0.645
2.119,-0.535,-0.640
2.122,-0.530,-0.640
2.125,-0.535,-0.630
2.128,-0.530,-0.610
2.131,-0.535,-0.590
2.133,-0.515,-0.580
2.136,-0.515,-0.580
2.139,-0.505,-0.560
2.142,-0.500,-0.560
2.144,-0.500,-0.560
2.147,-0.505,-0.560
2.150,-0.510,-0.555
2.153,-0.520,-0.560
2.156,-0.540,-0.580
2.158,-0.540,-0.575
2.161,-0.545,-0.560
2.164,-0.550,-0.555
2.167,-0.550,-0.545
2.169,-0.550,-0.550
2.172,-0.550,-0.535
2.175,-0.535,-0.540
2.178,-0.540,-0.545
2.181,-0.550,-0.545
2.183,-0.555,-0.560
2.186,-0.565,-0.560
2.189,-0.590,-0.570
2.192,-0.600,-0.580
2.194,-0.595,-0.575
2.197,-0.595,-0.570
2.200,-0.600,-0.570
2.203,-0.600,-0.555
2.206,-0.600,-0.550
2.208,-0.585,-0.540
2.211,-0.590,-0.555
2.214,-0.595,-0.550
2.217,-0.615,-0.570
2.219,-0.620,-0.585
2.222,-0.640,-0.585
2.225,-0.645,-0.600
2.228,-0.655,-0.600
2.231,-0.660,-0.605
2.233,-0.650,-0.595
2.236,-0.640,-0.605
2.239,-0.625,-0.605
2.242,-0.615,-0.605
2.244,-0.595,-0.615
2.247,-0.585,-0.620
2.250,-0.590,-0.630
2.253,-0.580,-0.635
2.256,-0.590,-0.635
2.258,-0.575,-0.645
2.261,-0.575,-0.640
2.264,-0.570,-0.630
2.267,-0.565,-0.625
2.269,-0.570,-0.620
2.272,-0.565,-0.615
2.275,-0.555,-0.600
2.278,-0.550,-0.620
2.281,-0.555,-0.620
2.283,-0.550,-0.625
2.286,-0.555,-0.640
2.289,-0.570,-0.640
2.292,-0.560,-0.635
2.294,-0.560,-0.620
2.297,-0.555,-0.605
2.300,-0.535,-0.605
2.303,-0.535,-0.585
2.306,-0.520,-0.570
2.308,-0.515,-0.560
2.311,-0.520,-0.565
2.314,-0.525,-0.560
2.317,-0.535,-0.570
2.319,-0.530,-0.570
2.322,-0.540,-0.585
2.325,-0.550,-0.580
2.328,-0.555,-0.585
2.331,-0.555,-0.575
2.333,-0.545,-0.570
2.336,-0.545,-0.545
2.339,-0.535,-0.540
2.342,-0.530,-0.540
2.344,-0.530,-0.540
2.347,-0.530,-0.545
2.350,-0.545,-0.540
2.353,-0.550,-0.540
2.356,-0.555,-0.545
2.358,-0.560,-0.550
2.361,-0.575,-0.530
2.364,-0.570,-0.540
2.367,-0.550,-0.525
2.369,-0.565,-0.525
2.372,-0.565,-0.540
2.375,-0.580,-0.535
2.378,-0.580,-0.545
2.381,-0.585,-0.535
2.383,-0.595,-0.555
2.386,-0.625,-0.555
2.389,-0.635,-0.565
2.392,-0.655,-0.575
2.394,-0.645,-0.575
2.397,-0.645,-0.575
2.400,-0.630,-0.570
2.403,-0.615,-0.560
2.406,-0.595,-0.560
2.408,-0.585,-0.555
2.411,-0.575,-0.555
2.414,-0.565,-0.555
2.417,-0.560,-0.560
2.419,-0.565,-0.570
2.422,-0.565,-0.565
2.425,-0.590,-0.565
2.428,-0.605,-0.570
2.431,-0.610,-0.550
2.433,-0.570,-0.530
2.436,-0.490,-0.490
2.439,-0.340,-0.415
2.442,-0.155,-0.335
2.444,0.050,-0.245
2.447,0.310,-0.150
2.450,0.600,-0.055
2.453,0.890,0.025
2.456,1.150,0.100
2.458,1.365,0.170
2.461,1.535,0.255
2.464,1.610,0.340
2.467,1.625,0.455
2.469,1.590,0.535
2.472,1.500,0.565
2.475,1.330,0.470
2.478,1.045,0.220
2.481,0.615,-0.150
2.483,0.100,-0.580
2.486,-0.345,-1.025
2.489,-0.635,-1.370
2.492,-0.770,-1.550
2.494,-0.765,-1.545
2.497,-0.705,-1.400
2.500,-0.620,-1.195
2.503,-0.565,-1.020
2.506,-0.535,-0.865
2.508,-0.530,-0.785
2.511,-0.555,-0.730
2.514,-0.580,-0.695
2.517,-0.615,-0.685
2.519,-0.625,-0.660
2.522,-0.645,-0.635
2.525,-0.660,-0.595
2.528,-0.665,-0.575
2.531,-0.670,-0.565
2.533,-0.675,-0.545
2.536,-0.680,-0.535
2.539,-0.680,-0.520
2.542,-0.695,-0.515
2.544,-0.700,-0.515
2.547,-0.705,-0.510
2.550,-0.735,-0.520
2.553,-0.760,-0.510
2.556,-0.765,-0.520
2.558,-0.785,-0.525
2.561,-0.805,-0.505
2.564,-0.815,-0.505
2.567,-0.820,-0.500
2.569,-0.805,-0.490
2.572,-0.800,-0.485
2.575,-0.800,-0.485
2.578,-0.800,-0.500
2.581,-0.800,-0.500
2.583,-0.805,-0.515
2.586,-0.810,-0.515
2.589,-0.810,-0.525
2.592,-0.815,-0.515
2.594,-0.805,-0.520
2.597,-0.785,-0.530
2.600,-0.790,-0.515
2.603,-0.780,-0.520
2.606,-0.765,-0.520
2.608,-0.770,-0.525
2.611,-0.760,-0.520
2.614,-0.745,-0.525
2.617,-0.760,-0.530
2.619,-0.760,-0.535
2.622,-0.775,-0.540
2.625,-0.770,-0.540
2.628,-0.775,-0.530
2.631,-0.780,-0.530
2.633,-0.780,-0.520
2.636,-0.770,-0.515
2.639,-0.765,-0.510
2.642,-0.755,-0.505
2.644,-0.775,-0.520
2.647,-0.785,-0.510
2.650,-0.795,-0.520
2.653,-0.800,-0.525
2.656,-0.815,-0.530
2.658,-0.835,-0.540
2.661,-0.835,-0.540
2.664,-0.850,-0.530
2.667,-0.855,-0.540
2.669,-0.860,-0.535
2.672,-0.870,-0.525
2.675,-0.865,-0.530
2.678,-0.880,-0.545
2.681,-0.895,-0.555
2.683,-0.905,-0.580
2.686,-0.920,-0.585
2.689,-0.955,-0.590
2.692,-0.960,-0.610
2.694,-0.980,-0.610
2.697,-0.990,-0.615
2.700,-1.000,-0.615
2.703,-1.000,-0.620
2.706,-1.010,-0.635
2.708,-1.020,-0.640
2.711,-1.030,-0.665
2.714,-1.035,-0.680
2.717,-1.065,-0.695
2.719,-1.085,-0.720
2.722,-1.115,-0.745
2.725,-1.130,-0.760
2.728,-1.135,-0.765
2.731,-1.145,-0.775
2.733,-1.145,-0.785
2.736,-1.140,-0.800
2.739,-1.120,-0.785
2.742,-1.105,-0.785
2.744,-1.100,-0.780
2.747,-1.090,-0.780
2.750,-1.065,-0.780
2.753,-1.065,-0.775
2.756,-1.050,-0.775
2.758,-1.000,-0.775
2.761,-0.970,-0.750
2.764,-0.940,-0.730
2.767,-0.905,-0.715
2.769,-0.880,-0.685
2.772,-0.835,-0.660
2.775,-0.770,-0.625
2.778,-0.750,-0.605
2.781,-0.720,-0.590
2.783,-0.695,-0.585
2.786,-0.685,-0.585
2.789,-0.670,-0.575
2.792,-0.650,-0.560
2.794,-0.645,-0.545
2.797,-0.615,-0.530
2.800,-0.595,-0.525
2.803,-0.570,-0.510
2.806,-0.555,-0.500
2.808,-0.540,-0.495
2.811,-0.535,-0.505
2.814,-0.525,-0.510
2.817,-0.535,-0.505
2.819,-0.540,-0.520
2.822,-0.545,-0.510
2.825,-0.550,-0.515
2.828,-0.555,-0.505
2.831,-0.550,-0.490
2.833,-0.545,-0.490
2.836,-0.535,-0.485
2.839,-0.520,-0.470
2.842,-0.535,-0.470
2.844,-0.530,-0.470
2.847,-0.530,-0.480
2.850,-0.540,-0.490
2.853,-0.545,-0.490
2.856,-0.565,-0.495
2.858,-0.560,-0.475
2.861,-0.560,-0.480
2.864,-0.560,-0.470
2.867,-0.560,-0.465
2.869,-0.555,-0.465
2.872,-0.550,-0.455
2.875,-0.565,-0.450
2.878,-0.565,-0.450
2.881,-0.570,-0.460
2.883,-0.580,-0.465
2.886,-0.585,-0.480
2.889,-0.595,-0.470
2.892,-0.590,-0.470
2.894,-0.595,-0.455
2.897,-0.585,-0.450
2.900,-0.570,-0.430
2.903,-0.560,-0.425
2.906,-0.545,-0.420
2.908,-0.565,-0.420
2.911,-0.565,-0.420
2.914,-0.570,-0.430
2.917,-0.580,-0.440
2.919,-0.580,-0.430
2.922,-0.585,-0.430
2.925,-0.580,-0.425
2.928,-0.580,-0.420
2.931,-0.570,-0.405
2.933,-0.565,-0.415
2.936,-0.560,-0.405
2.939,-0.555,-0.410
2.942,-0.555,-0.425
2.944,-0.555,-0.440
2.947,-0.565,-0.435
2.950,-0.565,-0.440
2.953,-0.575,-0.460
2.956,-0.580,-0.455
2.958,-0.585,-0.460
2.961,-0.605,-0.460
2.964,-0.605,-0.450
2.967,-0.595,-0.450
2.969,-0.590,-0.445
2.972,-0.570,-0.445
2.975,-0.555,-0.460
2.978,-0.550,-0.450
2.981,-0.535,-0.455
2.983,-0.540,-0.465
2.986,-0.545,-0.480
2.989,-0.535,-0.465
2.992,-0.530,-0.455
2.994,-0.530,-0.445
2.997,-0.520,-0.425
3.000,-0.510,-0.420
3.003,-0.495,-0.405
3.006,-0.495,-0.400
3.008,-0.480,-0.400
3.011,-0.490,-0.395
3.014,-0.490,-0.405
3.017,-0.500,-0.405
3.019,-0.505,-0.415
3.022,-0.510,-0.410
3.025,-0.515,-0.410
3.028,-0.515,-0.400
3.031,-0.520,-0.385
3.033,-0.520,-0.370
3.036,-0.510,-0.350
3.039,-0.495,-0.340
3.042,-0.495,-0.350
3.044,-0.505,-0.350
3.047,-0.515,-0.350
3.050,-0.510,-0.360
3.053,-0.515,-0.355
3.056,-0.525,-0.365
3.058,-0.525,-0.360
3.061,-0.525,-0.350
3.064,-0.525,-0.340
3.067,-0.525,-0.335
3.069,-0.520,-0.325
3.072,-0.500,-0.310
3.075,-0.505,-0.315
3.078,-0.500,-0.315
3.081,-0.505,-0.335
3.083,-0.515,-0.340
3.086,-0.525,-0.345
3.089,-0.535,-0.350
3.092,-0.530,-0.350
3.094,-0.525,-0.355
3.097,-0.525,-0.350
3.100,-0.515,-0.350
3.103,-0.500,-0.340
3.106,-0.505,-0.330
3.108,-0.505,-0.345
3.111,-0.510,-0.345
3.114,-0.515,-0.355
3.117,-0.525,-0.370
3.119,-0.540,-0.395
3.122,-0.565,-0.400
3.125,-0.570,-0.390
3.128,-0.580,-0.395
3.131,-0.585,-0.395
3.133,-0.575,-0.390
3.136,-0.585,-0.385
3.139,-0.575,-0.380
3.142,-0.575,-0.400
3.144,-0.590,-0.405
3.147,-0.580,-0.420
3.150,-0.580,-0.430
3.153,-0.580,-0.440
3.156,-0.585,-0.445
3.158,-0.560,-0.430
3.161,-0.570,-0.425
3.164,-0.555,-0.410
3.167,-0.515,-0.400
3.169,-0.505,-0.385
3.172,-0.500,-0.395
3.175,-0.490,-0.385
3.178,-0.475,-0.390
3.181,-0.485,-0.390
3.183,-0.485,-0.400
3.186,-0.490,-0.395
3.189,-0.485,-0.400
3.192,-0.500,-0.395
3.194,-0.505,-0.380
3.197,-0.515,-0.380
3.200,-0.505,-0.380
3.203,-0.495,-0.375
3.206,-0.485,-0.365
3.208,-0.490,-0.380
3.211,-0.475,-0.370
3.214,-0.490,-0.370
3.217,-0.495,-0.375
3.219,-0.500,-0.385
3.222,-0.505,-0.380
3.225,-0.505,-0.370
3.228,-0.510,-0.365
3.231,-0.495,-0.360
3.233,-0.490,-0.360
3.236,-0.485,-0.335
3.239,-0.465,-0.340
3.242,-0.465,-0.345
3.244,-0.460,-0.335
3.247,-0.465,-0.340
3.250,-0.480,-0.365
3.253,-0.495,-0.360
3.256,-0.495,-0.365
3.258,-0.510,-0.370
3.261,-0.515,-0.365
3.264,-0.510,-0.355
3.267,-0.505,-0.350
3.269,-0.495,-0.335
3.272,-0.490,-0.340
3.275,-0.485,-0.350
3.278,-0.490,-0.355
3.281,-0.490,-0.360
3.283,-0.490,-0.365
3.286,-0.505,-0.380
3.289,-0.500,-0.375
3.292,-0.510,-0.370
3.294,-0.515,-0.365
3.297,-0.505,-0.350
3.300,-0.495,-0.345
3.303,-0.500,-0.340
3.306,-0.500,-0.340
3.308,-0.520,-0.345
3.311,-0.555,-0.345
3.314,-0.590,-0.360
3.317,-0.600,-0.370
3.319,-0.550,-0.350
3.322,-0.460,-0.320
3.325,-0.305,-0.245
3.328,-0.100,-0.145
3.331,0.155,-0.030
3.333,0.440,0.060
3.336,0.745,0.170
3.339,1.055,0.260
3.342,1.330,0.345
3.344,1.545,0.430
3.347,1.670,0.520
3.350,1.705,0.630
3.353,1.690,0.725
3.356,1.650,0.810
3.358,1.550,0.825
3.361,1.360,0.705
3.364,1.055,0.430
3.367,0.605,0.020
3.369,0.100,-0.470
3.372,-0.325,-0.945
3.375,-0.605,-1.305
3.378,-0.700,-1.495
3.381,-0.700,-1.460
3.383,-0.660,-1.305
3.386,-0.600,-1.095
3.389,-0.560,-0.915
3.392,-0.545,-0.775
3.394,-0.540,-0.665
3.397,-0.555,-0.610
3.400,-0.575,-0.565
3.403,-0.585,-0.525
3.406,-0.585,-0.490
3.408,-0.595,-0.460
3.411,-0.595,-0.435
3.414,-0.595,-0.415
3.417,-0.620,-0.405
3.419,-0.630,-0.400
3.422,-0.640,-0.400
3.425,-0.655,-0.375
3.428,-0.660,-0.365
3.431,-0.680,-0.360
3.433,-0.675,-0.350
3.436,-0.675,-0.355
3.439,-0.680,-0.335
3.442,-0.675,-0.340
3.444,-0.685,-0.345
3.447,-0.680,-0.355
3.450,-0.700,-0.365
3.453,-0.715,-0.365
3.456,-0.725,-0.365
3.458,-0.740,-0.365
3.461,-0.725,-0.370
3.464,-0.740,-0.365
3.467,-0.730,-0.365
3.469,-0.730,-0.350
3.472,-0.730,-0.345
3.475,-0.735,-0.360
3.478,-0.735,-0.365
3.481,-0.745,-0.370
3.483,-0.750,-0.380
3.486,-0.770,-0.400
3.489,-0.770,-0.405
3.492,-0.775,-0.395
3.494,-0.785,-0.410
3.497,-0.815,-0.405
3.500,-0.820,-0.410
3.503,-0.825,-0.410
3.506,-0.820,-0.405
3.508,-0.820,-0.425
3.511,-0.825,-0.435
3.514,-0.825,-0.445
3.517,-0.825,-0.450
3.519,-0.835,-0.465
3.522,-0.835,-0.470
3.525,-0.840,-0.450
3.528,-0.835,-0.465
3.531,-0.840,-0.450
3.533,-0.845,-0.430
3.536,-0.860,-0.430
3.539,-0.875,-0.415
3.542,-0.860,-0.415
3.544,-0.880,-0.430
3.547,-0.875,-0.435
3.550,-0.890,-0.440
3.553,-0.915,-0.445
3.556,-0.920,-0.445
3.558,-0.935,-0.440
3.561,-0.945,-0.435
3.564,-0.955,-0.425
3.567,-0.955,-0.430
3.569,-0.975,-0.425
3.572,-0.985,-0.435
3.575,-1.005,-0.440
3.578,-1.030,-0.460
3.581,-1.045,-0.465
3.583,-1.060,-0.500
3.586,-1.075,-0.525
3.589,-1.090,-0.530
3.592,-1.100,-0.555
3.594,-1.105,-0.555
3.597,-1.125,-0.560
3.600,-1.125,-0.570
3.603,-1.130,-0.575
3.606,-1.130,-0.585
3.608,-1.135,-0.600
3.611,-1.150,-0.620
3.614,-1.160,-0.655
3.617,-1.175,-0.660
3.619,-1.175,-0.680
3.622,-1.170,-0.685
3.625,-1.165,-0.690
3.628,-1.160,-0.680
3.631,-1.125,-0.690
3.633,-1.100,-0.670
3.636,-1.070,-0.670
3.639,-1.045,-0.655
3.642,-1.015,-0.650
3.644,-0.980,-0.640
3.647,-0.930,-0.630
3.650,-0.915,-0.630
3.653,-0.895,-0.610
3.656,-0.880,-0.600
3.658,-0.860,-0.585
3.661,-0.830,-0.560
3.664,-0.800,-0.545
3.667,-0.760,-0.525
3.669,-0.740,-0.505
3.672,-0.700,-0.485
3.675,-0.675,-0.485
3.678,-0.650,-0.475
3.681,-0.640,-0.470
3.683,-0.630,-0.470
3.686,-0.625,-0.475
3.689,-0.605,-0.460
3.692,-0.595,-0.450
3.694,-0.600,-0.435
3.697,-0.565,-0.430
3.700,-0.550,-0.415
3.703,-0.545,-0.410
3.706,-0.525,-0.400
3.708,-0.525,-0.400
3.711,-0.525,-0.400
3.714,-0.525,-0.395
3.717,-0.535,-0.385
3.719,-0.550,-0.395
3.722,-0.555,-0.395
3.725,-0.555,-0.390
3.728,-0.555,-0.400
3.731,-0.555,-0.375
3.733,-0.550,-0.375
3.736,-0.560,-0.355
3.739,-0.550,-0.345
3.742,-0.550,-0.340
3.744,-0.565,-0.340
3.747,-0.565,-0.335
3.750,-0.570,-0.330
3.753,-0.575,-0.325
3.756,-0.580,-0.330
3.758,-0.580,-0.320
3.761,-0.585,-0.305
3.764,-0.575,-0.285
3.767,-0.555,-0.280
3.769,-0.550,-0.285
3.772,-0.535,-0.265
3.775,-0.545,-0.295
3.778,-0.535,-0.285
3.781,-0.540,-0.285
3.783,-0.535,-0.290
3.786,-0.540,-0.305
3.789,-0.535,-0.295
3.792,-0.525,-0.300
3.794,-0.525,-0.295
3.797,-0.520,-0.280
3.800,-0.510,-0.270
3.803,-0.510,-0.265
3.806,-0.505,-0.265
3.808,-0.500,-0.275
3.811,-0.510,-0.280
3.814,-0.520,-0.290
3.817,-0.525,-0.305
3.819,-0.545,-0.310
3.822,-0.540,-0.320
3.825,-0.540,-0.315
3.828,-0.525,-0.310
3.831,-0.505,-0.305
3.833,-0.480,-0.300
3.836,-0.475,-0.295
3.839,-0.465,-0.290
3.842,-0.450,-0.295
3.844,-0.445,-0.300
3.847,-0.445,-0.315
3.850,-0.430,-0.310
3.853,-0.435,-0.320
3.856,-0.455,-0.320
3.858,-0.435,-0.310
3.861,-0.435,-0.315
3.864,-0.430,-0.290
3.867,-0.420,-0.295
3.869,-0.415,-0.285
3.872,-0.415,-0.285
3.875,-0.410,-0.280
3.878,-0.405,-0.290
3.881,-0.405,-0.290
3.883,-0.415,-0.290
3.886,-0.420,-0.305
3.889,-0.430,-0.310
3.892,-0.445,-0.295
3.894,-0.465,-0.300
3.897,-0.485,-0.300
3.900,-0.505,-0.280
3.903,-0.530,-0.275
3.906,-0.485,-0.240
3.908,-0.375,-0.210
3.911,-0.215,-0.115
3.914,-0.010,-0.025
3.917,0.245,0.100
3.919,0.520,0.205
3.922,0.820,0.285
3.925,1.120,0.355
3.928,1.400,0.425
3.931,1.600,0.505
3.933,1.730,0.600
3.936,1.795,0.730
3.939,1.785,0.845
3.942,1.690,0.905
3.944,1.535,0.855
3.947,1.265,0.640
3.950,0.825,0.270
3.953,0.305,-0.195
3.956,-0.200,-0.675
3.958,-0.570,-1.070
3.961,-0.755,-1.285
3.964,-0.820,-1.305
3.967,-0.800,-1.165
3.969,-0.750,-0.975
3.972,-0.690,-0.790
3.975,-0.665,-0.680
3.978,-0.655,-0.615
3.981,-0.655,-0.580
3.983,-0.665,-0.560
3.986,-0.700,-0.540
3.989,-0.715,-0.515
3.992,-0.715,-0.480
3.994,-0.715,-0.465
3.997,-0.705,-0.415
4.000,-0.705,-0.410
4.003,-0.680,-0.395
4.006,-0.670,-0.375
4.008,-0.665,-0.375
4.011,-0.670,-0.380
4.014,-0.675,-0.370
4.017,-0.670,-0.370
4.019,-0.670,-0.375
4.022,-0.685,-0.360
4.025,-0.690,-0.355
4.028,-0.680,-0.355
4.031,-0.680,-0.335
4.033,-0.660,-0.330
4.036,-0.660,-0.315
4.039,-0.645,-0.305
4.042,-0.655,-0.315
4.044,-0.665,-0.315
4.047,-0.680,-0.320
4.050,-0.690,-0.330
4.053,-0.685,-0.330
4.056,-0.685,-0.325
4.058,-0.685,-0.320
4.061,-0.690,-0.320
4.064,-0.690,-0.310
4.067,-0.685,-0.305
4.069,-0.690,-0.300
4.072,-0.695,-0.295
4.075,-0.700,-0.295
4.078,-0.710,-0.300
4.081,-0.715,-0.305
4.083,-0.720,-0.310
4.086,-0.735,-0.310
4.089,-0.750,-0.330
4.092,-0.755,-0.320
4.094,-0.765,-0.315
4.097,-0.765,-0.305
4.100,-0.765,-0.295
4.103,-0.770,-0.305
4.106,-0.770,-0.285
4.108,-0.780,-0.295
4.111,-0.795,-0.295
4.114,-0.815,-0.290
4.117,-0.830,-0.305
4.119,-0.840,-0.315
4.122,-0.870,-0.325
4.125,-0.885,-0.320
4.128,-0.905,-0.340
4.131,-0.920,-0.325
4.133,-0.925,-0.350
4.136,-0.925,-0.335
4.139,-0.940,-0.340
4.142,-0.940,-0.355
4.144,-0.975,-0.375
4.147,-0.970,-0.380
4.150,-0.980,-0.405
4.153,-0.985,-0.425
4.156,-0.995,-0.445
4.158,-1.010,-0.440
4.161,-1.020,-0.445
4.164,-1.025,-0.445
4.167,-1.020,-0.455
4.169,-1.035,-0.455
4.172,-1.030,-0.460
4.175,-1.025,-0.470
4.178,-1.030,-0.490
4.181,-1.035,-0.500
4.183,-1.035,-0.525
4.186,-1.035,-0.540
4.189,-1.040,-0.545
4.192,-1.060,-0.550
4.194,-1.055,-0.555
4.197,-1.065,-0.555
4.200,-1.045,-0.555
4.203,-1.045,-0.550
4.206,-1.025,-0.555
4.208,-1.000,-0.545
4.211,-0.990,-0.565
4.214,-0.970,-0.555
4.217,-0.955,-0.560
4.219,-0.940,-0.550
4.222,-0.915,-0.550
4.225,-0.880,-0.540
4.228,-0.845,-0.520
4.231,-0.810,-0.500
4.233,-0.770,-0.470
4.236,-0.740,-0.460
4.239,-0.730,-0.435
4.242,-0.700,-0.430
4.244,-0.680,-0.420
4.247,-0.680,-0.415
4.250,-0.670,-0.425
4.253,-0.660,-0.420
4.256,-0.655,-0.415
4.258,-0.640,-0.400
4.261,-0.625,-0.380
4.264,-0.615,-0.360
4.267,-0.605,-0.350
4.269,-0.595,-0.350
4.272,-0.595,-0.345
4.275,-0.575,-0.340
4.278,-0.575,-0.330
4.281,-0.585,-0.335
4.283,-0.580,-0.335
4.286,-0.590,-0.345
4.289,-0.595,-0.345
4.292,-0.595,-0.330
4.294,-0.610,-0.330
4.297,-0.605,-0.335
4.300,-0.600,-0.320
4.303,-0.605,-0.320
4.306,-0.585,-0.315
4.308,-0.580,-0.315
4.311,-0.585,-0.320
4.314,-0.595,-0.320
4.317,-0.595,-0.325
4.319,-0.585,-0.330
4.322,-0.590,-0.340
4.325,-0.615,-0.330
4.328,-0.610,-0.320
4.331,-0.615,-0.315
4.333,-0.610,-0.305
4.336,-0.605,-0.305
4.339,-0.595,-0.305
4.342,-0.590,-0.300
4.344,-0.580,-0.305
4.347,-0.580,-0.315
4.350,-0.565,-0.320
4.353,-0.560,-0.330
4.356,-0.560,-0.340
4.358,-0.555,-0.325
4.361,-0.535,-0.315
4.364,-0.530,-0.300
4.367,-0.505,-0.280
4.369,-0.495,-0.270
4.372,-0.505,-0.260
4.375,-0.495,-0.270
4.378,-0.530,-0.285
4.381,-0.525,-0.290
4.383,-0.540,-0.300
4.386,-0.550,-0.320
4.389,-0.555,-0.325
4.392,-0.565,-0.325
4.394,-0.575,-0.310
4.397,-0.565,-0.315
4.400,-0.565,-0.310
4.403,-0.565,-0.300
4.406,-0.555,-0.305
4.408,-0.540,-0.310
4.411,-0.545,-0.310
4.414,-0.540,-0.315
4.417,-0.550,-0.335
4.419,-0.560,-0.315
4.422,-0.565,-0.320
4.425,-0.565,-0.315
4.428,-0.565,-0.315
4.431,-0.565,-0.310
4.433,-0.560,-0.300
4.436,-0.570,-0.300
4.439,-0.565,-0.290
4.442,-0.565,-0.285
4.444,-0.575,-0.290
4.447,-0.570,-0.305
4.450,-0.580,-0.315
4.453,-0.580,-0.325
4.456,-0.605,-0.330
4.458,-0.605,-0.335
4.461,-0.600,-0.325
4.464,-0.600,-0.320
4.467,-0.600,-0.325
4.469,-0.590,-0.315
4.472,-0.585,-0.310
4.475,-0.575,-0.320
4.478,-0.590,-0.315
4.481,-0.585,-0.335
4.483,-0.610,-0.340
4.486,-0.620,-0.345
4.489,-0.620,-0.360
4.492,-0.625,-0.355
4.494,-0.630,-0.345
4.497,-0.630,-0.345
4.500,-0.630,-0.340
4.503,-0.635,-0.330
4.506,-0.645,-0.330
4.508,-0.645,-0.335
4.511,-0.650,-0.355
4.514,-0.660,-0.375
4.517,-0.670,-0.385
4.519,-0.670,-0.395
4.522,-0.665,-0.410
4.525,-0.655,-0.390
4.528,-0.640,-0.390
4.531,-0.625,-0.365
4.533,-0.590,-0.365
4.536,-0.570,-0.355
4.539,-0.560,-0.350
4.542,-0.545,-0.340
4.544,-0.540,-0.330
4.547,-0.545,-0.330
4.550,-0.535,-0.325
4.553,-0.545,-0.330
4.556,-0.535,-0.335
4.558,-0.540,-0.330
4.561,-0.545,-0.325
4.564,-0.540,-0.315
4.567,-0.535,-0.305
4.569,-0.530,-0.305
4.572,-0.520,-0.285
4.575,-0.525,-0.285
4.578,-0.520,-0.285
4.581,-0.525,-0.290
4.583,-0.540,-0.300
4.586,-0.540,-0.310
4.589,-0.550,-0.315
4.592,-0.550,-0.310
4.594,-0.565,-0.310
4.597,-0.560,-0.295
4.600,-0.565,-0.300
4.603,-0.565,-0.290
4.606,-0.580,-0.270
4.608,-0.595,-0.295
4.611,-0.600,-0.295
4.614,-0.610,-0.310
4.617,-0.625,-0.325
4.619,-0.625,-0.340
4.622,-0.630,-0.340
4.625,-0.640,-0.330
4.628,-0.635,-0.320
4.631,-0.625,-0.325
4.633,-0.610,-0.315
4.636,-0.600,-0.320
4.639,-0.595,-0.310
4.642,-0.600,-0.325
4.644,-0.600,-0.310
4.647,-0.605,-0.330
4.650,-0.615,-0.335
4.653,-0.615,-0.340
4.656,-0.635,-0.340
4.658,-0.645,-0.355
4.661,-0.640,-0.350
4.664,-0.640,-0.340
4.667,-0.640,-0.340
4.669,-0.645,-0.335
4.672,-0.635,-0.330
4.675,-0.635,-0.345
4.678,-0.650,-0.345
4.681,-0.660,-0.355
4.683,-0.655,-0.350
4.686,-0.655,-0.365
4.689,-0.635,-0.365
4.692,-0.625,-0.360
4.694,-0.605,-0.355
4.697,-0.590,-0.340
4.700,-0.580,-0.335
4.703,-0.585,-0.310
4.706,-0.580,-0.305
4.708,-0.605,-0.310
4.711,-0.620,-0.310
4.714,-0.610,-0.300
4.717,-0.555,-0.270
4.719,-0.420,-0.235
4.722,-0.240,-0.160
4.725,-0.020,-0.045
4.728,0.255,0.065
4.731,0.550,0.170
4.733,0.875,0.250
4.736,1.190,0.335
4.739,1.450,0.415
4.742,1.640,0.490
4.744,1.735,0.600
4.747,1.760,0.700
4.750,1.705,0.790
4.753,1.600,0.815
4.756,1.420,0.715
4.758,1.100,0.465
4.761,0.640,0.080
4.764,0.105,-0.365
4.767,-0.360,-0.810
4.769,-0.660,-1.170
4.772,-0.770,-1.340
4.775,-0.770,-1.350
4.778,-0.710,-1.190
4.781,-0.660,-1.000
4.783,-0.605,-0.835
4.786,-0.595,-0.705
4.789,-0.610,-0.625
4.792,-0.645,-0.585
4.794,-0.675,-0.550
4.797,-0.695,-0.510
4.800,-0.700,-0.475
4.803,-0.715,-0.430
4.806,-0.710,-0.400
4.808,-0.710,-0.380
4.811,-0.720,-0.350
4.814,-0.740,-0.360
4.817,-0.770,-0.355
4.819,-0.795,-0.365
4.822,-0.810,-0.370
4.825,-0.820,-0.365
4.828,-0.830,-0.365
4.831,-0.825,-0.355
4.833,-0.820,-0.345
4.836,-0.815,-0.315
4.839,-0.805,-0.315
4.842,-0.805,-0.325
4.844,-0.815,-0.310
4.847,-0.795,-0.335
4.850,-0.810,-0.330
4.853,-0.815,-0.335
4.856,-0.820,-0.340
4.858,-0.825,-0.340
4.861,-0.835,-0.335
4.864,-0.830,-0.320
4.867,-0.835,-0.315
4.869,-0.835,-0.300
4.872,-0.830,-0.300
4.875,-0.820,-0.305
4.878,-0.820,-0.305
4.881,-0.820,-0.310
4.883,-0.810,-0.320
4.886,-0.820,-0.330
4.889,-0.815,-0.325
4.892,-0.840,-0.325
4.894,-0.830,-0.315
4.897,-0.845,-0.305
4.900,-0.835,-0.305
4.903,-0.835,-0.295
4.906,-0.835,-0.285
4.908,-0.830,-0.290
4.911,-0.835,-0.295
4.914,-0.845,-0.310
4.917,-0.860,-0.320
4.919,-0.865,-0.320
4.922,-0.880,-0.330
4.925,-0.885,-0.325
4.928,-0.885,-0.335
4.931,-0.900,-0.330
4.933,-0.895,-0.325
4.936,-0.905,-0.320
4.939,-0.910,-0.325
4.942,-0.915,-0.320
4.944,-0.925,-0.335
4.947,-0.950,-0.350
4.950,-0.965,-0.355
4.953,-0.975,-0.360
4.956,-0.995,-0.385
4.958,-1.000,-0.385
4.961,-1.010,-0.395
4.964,-1.030,-0.395
4.967,-1.040,-0.400
4.969,-1.055,-0.410
4.972,-1.065,-0.420
4.975,-1.085,-0.440
4.978,-1.110,-0.465
4.981,-1.130,-0.475
4.983,-1.145,-0.505
4.986,-1.165,-0.540
4.989,-1.185,-0.565
4.992,-1.210,-0.565
4.994,-1.205,-0.585
4.997,-1.210,-0.585
5.000,-1.225,-0.595
5.003,-1.225,-0.595
5.006,-1.210,-0.605
5.008,-1.210,-0.610
5.011,-1.215,-0.615
5.014,-1.215,-0.640
5.017,-1.225,-0.660
5.019,-1.235,-0.675
5.022,-1.230,-0.685
5.025,-1.240,-0.680
5.028,-1.240,-0.680
5.031,-1.225,-0.670
5.033,-1.205,-0.660
5.036,-1.195,-0.660
5.039,-1.165,-0.655
5.042,-1.135,-0.650
5.044,-1.125,-0.640
5.047,-1.095,-0.645
5.050,-1.060,-0.640
5.053,-1.020,-0.640
5.056,-1.000,-0.625
5.058,-0.975,-0.595
5.061,-0.935,-0.570
5.064,-0.895,-0.545
5.067,-0.855,-0.515
5.069,-0.825,-0.490
5.072,-0.780,-0.465
5.075,-0.755,-0.450
5.078,-0.735,-0.425
5.081,-0.720,-0.430
5.083,-0.710,-0.415
5.086,-0.700,-0.410
5.089,-0.690,-0.400
5.092,-0.675,-0.380
5.094,-0.665,-0.380
5.097,-0.650,-0.355
5.100,-0.630,-0.340
5.103,-0.620,-0.335
5.106,-0.595,-0.310
5.108,-0.590,-0.310
5.111,-0.580,-0.310
5.114,-0.590,-0.310
5.117,-0.595,-0.335
5.119,-0.610,-0.345
5.122,-0.610,-0.345
5.125,-0.615,-0.330
5.128,-0.615,-0.335
5.131,-0.615,-0.320
5.133,-0.615,-0.320
5.136,-0.620,-0.320
5.139,-0.600,-0.310
5.142,-0.585,-0.315
5.144,-0.585,-0.320
5.147,-0.580,-0.335
5.150,-0.595,-0.345
5.153,-0.595,-0.340
5.156,-0.600,-0.345
5.158,-0.610,-0.335
5.161,-0.600,-0.330
5.164,-0.590,-0.325
5.167,-0.580,-0.305
5.169,-0.575,-0.305
5.172,-0.560,-0.300
5.175,-0.540,-0.305
5.178,-0.535,-0.295
5.181,-0.535,-0.295
5.183,-0.535,-0.295
5.186,-0.540,-0.305
5.189,-0.540,-0.300
5.192,-0.550,-0.280
5.194,-0.550,-0.265
5.197,-0.545,-0.250
5.200,-0.535,-0.240
5.203,-0.540,-0.220
5.206,-0.520,-0.205
5.208,-0.510,-0.200
5.211,-0.520,-0.195
5.214,-0.520,-0.200
5.217,-0.535,-0.205
5.219,-0.525,-0.200
5.222,-0.540,-0.200
5.225,-0.530,-0.195
5.228,-0.525,-0.190
5.231,-0.530,-0.170
5.233,-0.520,-0.160
5.236,-0.525,-0.145
5.239,-0.520,-0.140
5.242,-0.505,-0.140
5.244,-0.510,-0.130
5.247,-0.520,-0.150
5.250,-0.510,-0.155
5.253,-0.525,-0.160
5.256,-0.545,-0.170
5.258,-0.555,-0.170
5.261,-0.565,-0.175
5.264,-0.560,-0.165
5.267,-0.550,-0.155
5.269,-0.545,-0.165
5.272,-0.550,-0.165
5.275,-0.545,-0.170
5.278,-0.560,-0.185
5.281,-0.570,-0.205
5.283,-0.595,-0.210
5.286,-0.600,-0.215
5.289,-0.625,-0.235
5.292,-0.630,-0.235
5.294,-0.615,-0.235
5.297,-0.625,-0.230
5.300,-0.605,-0.235
5.303,-0.605,-0.230
5.306,-0.620,-0.215
5.308,-0.615,-0.225
5.311,-0.625,-0.240
5.314,-0.600,-0.225
5.317,-0.510,-0.200
5.319,-0.360,-0.140
5.322,-0.160,-0.040
5.325,0.080,0.075
5.328,0.370,0.185
5.331,0.675,0.275
5.333,0.995,0.355
5.336,1.300,0.425
5.339,1.550,0.485
5.342,1.700,0.560
5.344,1.745,0.655
5.347,1.725,0.730
5.350,1.640,0.765
5.353,1.455,0.670
5.356,1.130,0.410
5.358,0.650,0.005
5.361,0.095,-0.480
5.364,-0.385,-0.930
5.367,-0.685,-1.255
5.369,-0.810,-1.365
5.372,-0.795,-1.290
5.375,-0.710,-1.100
5.378,-0.635,-0.875
5.381,-0.580,-0.695
5.383,-0.580,-0.570
5.386,-0.595,-0.510
5.389,-0.635,-0.470
5.392,-0.675,-0.435
5.394,-0.695,-0.405
5.397,-0.695,-0.365
5.400,-0.680,-0.315
5.403,-0.675,-0.290
5.406,-0.670,-0.265
5.408,-0.665,-0.255
5.411,-0.675,-0.245
5.414,-0.700,-0.250
5.417,-0.695,-0.265
5.419,-0.715,-0.255
5.422,-0.730,-0.250
5.425,-0.730,-0.255
5.428,-0.745,-0.245
5.431,-0.750,-0.245
5.433,-0.745,-0.230
5.436,-0.765,-0.220
5.439,-0.765,-0.220
5.442,-0.770,-0.225
5.444,-0.775,-0.225
5.447,-0.790,-0.230
5.450,-0.810,-0.250
5.453,-0.825,-0.235
5.456,-0.845,-0.255
5.458,-0.850,-0.265
5.461,-0.855,-0.260
5.464,-0.865,-0.265
5.467,-0.865,-0.260
5.469,-0.855,-0.255
5.472,-0.850,-0.240
5.475,-0.845,-0.260
5.478,-0.850,-0.260
5.481,-0.850,-0.260
5.483,-0.855,-0.260
5.486,-0.860,-0.265
5.489,-0.860,-0.280
5.492,-0.860,-0.265
5.494,-0.850,-0.265
5.497,-0.845,-0.260
5.500,-0.840,-0.260
5.503,-0.825,-0.255
5.506,-0.830,-0.245
5.508,-0.825,-0.240
5.511,-0.830,-0.240
5.514,-0.820,-0.240
5.517,-0.825,-0.255
5.519,-0.840,-0.250
5.522,-0.845,-0.255
5.525,-0.860,-0.260
5.528,-0.880,-0.260
5.531,-0.880,-0.250
5.533,-0.870,-0.250
5.536,-0.870,-0.235
5.539,-0.875,-0.245
5.542,-0.880,-0.245
5.544,-0.880,-0.260
5.547,-0.890,-0.280
5.550,-0.900,-0.280
5.553,-0.915,-0.300
5.556,-0.935,-0.310
5.558,-0.950,-0.310
5.561,-0.965,-0.310
5.564,-0.980,-0.315
5.567,-0.985,-0.320
5.569,-0.995,-0.320
5.572,-1.000,-0.315
5.575,-1.000,-0.330
5.578,-1.015,-0.335
5.581,-1.020,-0.355
5.583,-1.045,-0.365
5.586,-1.065,-0.375
5.589,-1.090,-0.400
5.592,-1.100,-0.410
5.594,-1.125,-0.415
5.597,-1.135,-0.415
5.600,-1.150,-0.420
5.603,-1.140,-0.430
5.606,-1.140,-0.420
5.608,-1.140,-0.440
5.611,-1.135,-0.455
5.614,-1.125,-0.460
5.617,-1.125,-0.485
5.619,-1.120,-0.490
5.622,-1.105,-0.500
5.625,-1.100,-0.485
5.628,-1.070,-0.490
5.631,-1.025,-0.465
5.633,-0.975,-0.450
5.636,-0.955,-0.435
5.639,-0.910,-0.415
5.642,-0.865,-0.405
5.644,-0.840,-0.400
5.647,-0.820,-0.405
5.650,-0.815,-0.400
5.653,-0.800,-0.395
5.656,-0.785,-0.405
5.658,-0.785,-0.380
5.661,-0.745,-0.365
5.664,-0.720,-0.360
5.667,-0.700,-0.335
5.669,-0.675,-0.325
5.672,-0.635,-0.310
5.675,-0.620,-0.300
5.678,-0.615,-0.300
5.681,-0.600,-0.300
5.683,-0.595,-0.290
5.686,-0.610,-0.300
5.689,-0.605,-0.310
5.692,-0.605,-0.315
5.694,-0.605,-0.295
5.697,-0.605,-0.300
5.700,-0.605,-0.290
5.703,-0.600,-0.265
5.706,-0.595,-0.265
5.708,-0.580,-0.265
5.711,-0.585,-0.260
5.714,-0.590,-0.260
5.717,-0.575,-0.270
5.719,-0.595,-0.275
5.722,-0.610,-0.280
5.725,-0.610,-0.275
5.728,-0.620,-0.275
5.731,-0.615,-0.270
5.733,-0.605,-0.260
5.736,-0.605,-0.240
5.739,-0.595,-0.230
5.742,-0.590,-0.235
5.744,-0.585,-0.235
5.747,-0.580,-0.230
5.750,-0.595,-0.240
5.753,-0.615,-0.250
5.756,-0.620,-0.250
5.758,-0.625,-0.245
5.761,-0.620,-0.245
5.764,-0.615,-0.235
5.767,-0.620,-0.240
5.769,-0.605,-0.230
5.772,-0.605,-0.205
5.775,-0.595,-0.225
5.778,-0.605,-0.225
5.781,-0.600,-0.225
5.783,-0.605,-0.235
5.786,-0.610,-0.250
5.789,-0.610,-0.245
5.792,-0.610,-0.235
5.794,-0.605,-0.220
5.797,-0.610,-0.230
5.800,-0.600,-0.210
5.803,-0.605,-0.200
5.806,-0.590,-0.195
5.808,-0.565,-0.190
5.811,-0.570,-0.195
5.814,-0.580,-0.220
5.817,-0.585,-0.220
5.819,-0.600,-0.225
5.822,-0.600,-0.225
5.825,-0.600,-0.220
5.828,-0.605,-0.220
5.831,-0.600,-0.215
5.833,-0.585,-0.195
5.836,-0.580,-0.200
5.839,-0.570,-0.185
5.842,-0.535,-0.190
5.844,-0.535,-0.200
5.847,-0.535,-0.205
5.850,-0.545,-0.205
5.853,-0.550,-0.205
5.856,-0.565,-0.215
5.858,-0.570,-0.215
5.861,-0.585,-0.205
5.864,-0.590,-0.200
5.867,-0.575,-0.205
5.869,-0.565,-0.200
5.872,-0.550,-0.195
5.875,-0.550,-0.220
5.878,-0.555,-0.225
5.881,-0.555,-0.235
5.883,-0.575,-0.240
5.886,-0.580,-0.240
5.889,-0.585,-0.250
5.892,-0.585,-0.250
5.894,-0.585,-0.245
5.897,-0.575,-0.230
5.900,-0.575,-0.230
5.903,-0.575,-0.230
5.906,-0.560,-0.235
5.908,-0.560,-0.225
5.911,-0.570,-0.230
5.914,-0.570,-0.230
5.917,-0.565,-0.230
5.919,-0.580,-0.230
5.922,-0.585,-0.225
5.925,-0.580,-0.230
5.928,-0.575,-0.225
5.931,-0.565,-0.225
5.933,-0.560,-0.225
5.936,-0.550,-0.215
5.939,-0.540,-0.210
5.942,-0.550,-0.215
5.944,-0.545,-0.225
5.947,-0.550,-0.240
5.950,-0.575,-0.240
5.953,-0.580,-0.245
5.956,-0.590,-0.270
5.958,-0.585,-0.260
5.961,-0.560,-0.250
5.964,-0.555,-0.250
5.967,-0.550,-0.245
5.969,-0.550,-0.240
5.972,-0.545,-0.235
5.975,-0.545,-0.235
5.978,-0.550,-0.245
5.981,-0.550,-0.250
5.983,-0.545,-0.260
5.986,-0.545,-0.260
5.989,-0.555,-0.260
5.992,-0.555,-0.255
5.994,-0.560,-0.245
5.997,-0.565,-0.240
6.000,-0.560,-0.245
6.003,-0.555,-0.240
6.006,-0.555,-0.230
6.008,-0.545,-0.235
6.011,-0.540,-0.230
6.014,-0.550,-0.230
6.017,-0.540,-0.220
6.019,-0.540,-0.230
6.022,-0.545,-0.225
6.025,-0.555,-0.220
6.028,-0.565,-0.220
6.031,-0.565,-0.225
6.033,-0.545,-0.220
6.036,-0.565,-0.215
6.039,-0.565,-0.210
6.042,-0.580,-0.215
6.044,-0.565,-0.215
6.047,-0.575,-0.230
6.050,-0.585,-0.240
6.053,-0.595,-0.255
6.056,-0.600,-0.260
6.058,-0.605,-0.270
6.061,-0.595,-0.265
6.064,-0.585,-0.250
6.067,-0.575,-0.240
6.069,-0.565,-0.225
6.072,-0.550,-0.220
6.075,-0.550,-0.215
6.078,-0.550,-0.220
6.081,-0.555,-0.210
6.083,-0.550,-0.215
6.086,-0.565,-0.210
6.089,-0.585,-0.210
6.092,-0.605,-0.210
6.094,-0.630,-0.185
6.097,-0.655,-0.185
6.100,-0.645,-0.180
6.103,-0.585,-0.155
6.106,-0.465,-0.080
6.108,-0.270,0.000
6.111,-0.035,0.100
6.114,0.260,0.225
6.117,0.590,0.325
6.119,0.935,0.415
6.122,1.255,0.515
6.125,1.525,0.605
6.128,1.710,0.710
6.131,1.775,0.845
6.133,1.770,0.945
6.136,1.695,1.005
6.139,1.525,0.935
6.142,1.200,0.665
6.144,0.710,0.215
6.147,0.120,-0.345
6.150,-0.390,-0.895
6.153,-0.710,-1.270
6.156,-0.840,-1.420
6.158,-0.840,-1.345
6.161,-0.755,-1.130
6.164,-0.665,-0.875
6.167,-0.620,-0.670
6.169,-0.590,-0.555
6.172,-0.590,-0.475
6.175,-0.605,-0.450
6.178,-0.635,-0.420
6.181,-0.650,-0.390
6.183,-0.650,-0.375
6.186,-0.670,-0.355
6.189,-0.665,-0.310
6.192,-0.670,-0.290
6.194,-0.675,-0.280
6.197,-0.685,-0.260
6.200,-0.685,-0.250
6.203,-0.685,-0.255
6.206,-0.680,-0.230
6.208,-0.685,-0.245
6.211,-0.715,-0.245
6.214,-0.720,-0.260
6.217,-0.725,-0.265
6.219,-0.735,-0.265
6.222,-0.770,-0.265
6.225,-0.755,-0.270
6.228,-0.770,-0.245
6.231,-0.770,-0.240
6.233,-0.765,-0.235
6.236,-0.770,-0.215
6.239,-0.770,-0.215
6.242,-0.785,-0.220
6.244,-0.780,-0.220
6.247,-0.800,-0.225
6.250,-0.805,-0.240
6.253,-0.815,-0.240
6.256,-0.830,-0.250
6.258,-0.840,-0.255
6.261,-0.845,-0.255
6.264,-0.840,-0.245
6.267,-0.840,-0.235
6.269,-0.840,-0.230
6.272,-0.840,-0.235
6.275,-0.835,-0.230
6.278,-0.845,-0.245
6.281,-0.855,-0.250
6.283,-0.865,-0.255
6.286,-0.875,-0.260
6.289,-0.880,-0.275
6.292,-0.885,-0.280
6.294,-0.885,-0.280
6.297,-0.890,-0.265
6.300,-0.895,-0.265
6.303,-0.905,-0.275
6.306,-0.910,-0.265
6.308,-0.915,-0.280
6.311,-0.930,-0.295
6.314,-0.950,-0.315
6.317,-0.985,-0.330
6.319,-0.995,-0.355
6.322,-1.005,-0.375
6.325,-1.025,-0.375
6.328,-1.020,-0.370
6.331,-1.015,-0.380
6.333,-1.025,-0.375
6.336,-1.030,-0.380
6.339,-1.030,-0.380
6.342,-1.035,-0.395
6.344,-1.055,-0.420
6.347,-1.075,-0.440
6.350,-1.090,-0.460
6.353,-1.110,-0.480
6.356,-1.125,-0.500
6.358,-1.150,-0.515
6.361,-1.165,-0.525
6.364,-1.185,-0.535
6.367,-1.190,-0.555
6.369,-1.190,-0.545
6.372,-1.190,-0.540
6.375,-1.190,-0.560
6.378,-1.200,-0.570
6.381,-1.210,-0.585
6.383,-1.215,-0.600
6.386,-1.215,-0.620
6.389,-1.220,-0.640
6.392,-1.210,-0.640
6.394,-1.195,-0.625
6.397,-1.175,-0.625
6.400,-1.160,-0.610
6.403,-1.125,-0.600
6.406,-1.095,-0.590
6.408,-1.065,-0.575
6.411,-1.035,-0.575
6.414,-0.985,-0.560
6.417,-0.955,-0.555
6.419,-0.930,-0.535
6.422,-0.900,-0.515
6.425,-0.865,-0.495
6.428,-0.830,-0.465
6.431,-0.810,-0.440
6.433,-0.780,-0.430
6.436,-0.745,-0.405
6.439,-0.700,-0.375
6.442,-0.685,-0.360
6.444,-0.655,-0.345
6.447,-0.645,-0.335
6.450,-0.630,-0.340
6.453,-0.630,-0.330
6.456,-0.630,-0.330
6.458,-0.620,-0.320
6.461,-0.620,-0.300
6.464,-0.615,-0.315
6.467,-0.605,-0.290
6.469,-0.590,-0.295
6.472,-0.585,-0.290
6.475,-0.580,-0.275
6.478,-0.580,-0.290
6.481,-0.580,-0.300
6.483,-0.585,-0.310
6.486,-0.585,-0.305
6.489,-0.595,-0.315
6.492,-0.615,-0.315
6.494,-0.610,-0.320
6.497,-0.610,-0.320
6.500,-0.595,-0.305
6.503,-0.580,-0.295
6.506,-0.565,-0.285
6.508,-0.545,-0.285
6.511,-0.545,-0.290
6.514,-0.545,-0.285
6.517,-0.550,-0.280
6.519,-0.555,-0.295
6.522,-0.555,-0.290
6.525,-0.555,-0.290
6.528,-0.550,-0.280
6.531,-0.550,-0.265
6.533,-0.545,-0.250
6.536,-0.535,-0.235
6.539,-0.530,-0.235
6.542,-0.515,-0.225
6.544,-0.510,-0.225
6.547,-0.510,-0.210
6.550,-0.515,-0.215
6.553,-0.520,-0.215
6.556,-0.530,-0.215
6.558,-0.530,-0.220
6.561,-0.525,-0.190
6.564,-0.525,-0.175
6.567,-0.515,-0.165
6.569,-0.505,-0.155
6.572,-0.505,-0.145
6.575,-0.490,-0.140
6.578,-0.490,-0.150
6.581,-0.485,-0.145
6.583,-0.500,-0.155
6.586,-0.510,-0.155
6.589,-0.510,-0.150
6.592,-0.500,-0.160
6.594,-0.495,-0.155
6.597,-0.495,-0.160
6.600,-0.480,-0.135
6.603,-0.485,-0.135
6.606,-0.465,-0.130
6.608,-0.465,-0.135
6.611,-0.475,-0.135
6.614,-0.475,-0.135
6.617,-0.480,-0.155
6.619,-0.495,-0.165
6.622,-0.505,-0.175
6.625,-0.500,-0.170
6.628,-0.510,-0.160
6.631,-0.490,-0.160
6.633,-0.500,-0.165
6.636,-0.510,-0.165
6.639,-0.510,-0.170
6.642,-0.510,-0.165
6.644,-0.510,-0.185
6.647,-0.515,-0.180
6.650,-0.520,-0.200
6.653,-0.535,-0.205
6.656,-0.540,-0.220
6.658,-0.550,-0.205
6.661,-0.545,-0.195
6.664,-0.555,-0.200
6.667,-0.550,-0.195
6.669,-0.545,-0.185
6.672,-0.550,-0.180
6.675,-0.545,-0.195
6.678,-0.550,-0.190
6.681,-0.555,-0.200
6.683,-0.565,-0.210
6.686,-0.580,-0.215
6.689,-0.570,-0.230
6.692,-0.580,-0.205
6.694,-0.575,-0.210
6.697,-0.565,-0.205
6.700,-0.570,-0.190
6.703,-0.570,-0.190
6.706,-0.550,-0.185
6.708,-0.545,-0.195
6.711,-0.545,-0.205
6.714,-0.545,-0.210
6.717,-0.550,-0.215
6.719,-0.565,-0.240
6.722,-0.560,-0.250
6.725,-0.565,-0.250
6.728,-0.560,-0.255
6.731,-0.565,-0.245
6.733,-0.550,-0.240
6.736,-0.555,-0.230
6.739,-0.555,-0.225
6.742,-0.560,-0.240
6.744,-0.555,-0.235
6.747,-0.545,-0.245
6.750,-0.540,-0.260
6.753,-0.550,-0.270
6.756,-0.555,-0.260
6.758,-0.555,-0.265
6.761,-0.550,-0.260
6.764,-0.545,-0.265
6.767,-0.550,-0.255
6.769,-0.530,-0.255
6.772,-0.520,-0.250
6.775,-0.505,-0.245
6.778,-0.510,-0.255
6.781,-0.515,-0.260
6.783,-0.520,-0.270
6.786,-0.515,-0.270
6.789,-0.510,-0.280
6.792,-0.520,-0.280
6.794,-0.525,-0.280
6.797,-0.525,-0.280
6.800,-0.530,-0.260
6.803,-0.520,-0.265
6.806,-0.515,-0.265
6.808,-0.505,-0.275
6.811,-0.510,-0.280
6.814,-0.530,-0.280
6.817,-0.545,-0.280
6.819,-0.550,-0.290
6.822,-0.540,-0.280
6.825,-0.535,-0.280
6.828,-0.535,-0.260
6.831,-0.535,-0.250
6.833,-0.530,-0.245
6.836,-0.535,-0.245
6.839,-0.545,-0.250
6.842,-0.545,-0.250
6.844,-0.590,-0.255
6.847,-0.615,-0.265
6.850,-0.640,-0.270
6.853,-0.635,-0.250
6.856,-0.570,-0.225
6.858,-0.435,-0.150
6.861,-0.245,-0.060
6.864,0.005,0.040
6.867,0.325,0.155
6.869,0.655,0.255
6.872,0.985,0.340
6.875,1.300,0.415
6.878,1.555,0.485
6.881,1.710,0.595
6.883,1.775,0.700
6.886,1.750,0.805
6.889,1.655,0.835
6.892,1.440,0.725
6.894,1.100,0.450
6.897,0.595,0.015
6.900,0.025,-0.495
6.903,-0.455,-0.980
6.906,-0.745,-1.315
6.908,-0.875,-1.410
6.911,-0.830,-1.335
6.914,-0.760,-1.120
6.917,-0.680,-0.915
6.919,-0.625,-0.740
6.922,-0.615,-0.630
6.925,-0.630,-0.570
6.928,-0.645,-0.535
6.931,-0.675,-0.495
6.933,-0.675,-0.465
6.936,-0.690,-0.440
6.939,-0.675,-0.390
6.942,-0.670,-0.365
6.944,-0.675,-0.360
6.947,-0.690,-0.340
6.950,-0.705,-0.350
6.953,-0.705,-0.345
6.956,-0.730,-0.355
6.958,-0.730,-0.355
6.961,-0.720,-0.355
6.964,-0.720,-0.340
6.967,-0.710,-0.325
6.969,-0.720,-0.320
6.972,-0.725,-0.300
6.975,-0.715,-0.305
6.978,-0.730,-0.300
6.981,-0.730,-0.305
6.983,-0.740,-0.305
6.986,-0.750,-0.310
6.989,-0.765,-0.310
6.992,-0.765,-0.305
6.994,-0.755,-0.310
6.997,-0.760,-0.300
7.000,-0.760,-0.290
7.003,-0.770,-0.290
7.006,-0.770,-0.270
7.008,-0.790,-0.275
7.011,-0.800,-0.285
7.014,-0.820,-0.295
7.017,-0.830,-0.310
7.019,-0.860,-0.325
7.022,-0.865,-0.340
7.025,-0.880,-0.335
7.028,-0.895,-0.335
7.031,-0.890,-0.345
7.033,-0.880,-0.345
7.036,-0.895,-0.330
7.039,-0.885,-0.320
7.042,-0.870,-0.330
7.044,-0.875,-0.340
7.047,-0.890,-0.335
7.050,-0.895,-0.350
7.053,-0.910,-0.375
7.056,-0.925,-0.375
7.058,-0.945,-0.380
7.061,-0.950,-0.375
7.064,-0.955,-0.385
7.067,-0.965,-0.380
7.069,-0.970,-0.370
7.072,-0.960,-0.365
7.075,-0.960,-0.385
7.078,-0.960,-0.385
7.081,-0.955,-0.405
7.083,-0.985,-0.415
7.086,-1.005,-0.425
7.089,-1.025,-0.440
7.092,-1.035,-0.445
7.094,-1.055,-0.450
7.097,-1.070,-0.455
7.100,-1.080,-0.470
7.103,-1.070,-0.470
7.106,-1.080,-0.470
7.108,-1.095,-0.475
7.111,-1.105,-0.500
7.114,-1.115,-0.520
7.117,-1.125,-0.530
7.119,-1.135,-0.555
7.122,-1.160,-0.575
7.125,-1.180,-0.580
7.128,-1.195,-0.585
7.131,-1.205,-0.595
7.133,-1.215,-0.600
7.136,-1.230,-0.615
7.139,-1.245,-0.610
7.142,-1.220,-0.630
7.144,-1.230,-0.640
7.147,-1.225,-0.645
7.150,-1.220,-0.660
7.153,-1.215,-0.665
7.156,-1.190,-0.665
7.158,-1.160,-0.670
7.161,-1.135,-0.640
7.164,-1.095,-0.625
7.167,-1.060,-0.605
7.169,-1.030,-0.585
7.172,-1.000,-0.565
7.175,-0.960,-0.540
7.178,-0.925,-0.550
7.181,-0.910,-0.530
7.183,-0.870,-0.520
7.186,-0.860,-0.505
7.189,-0.835,-0.505
7.192,-0.820,-0.490
7.194,-0.790,-0.465
7.197,-0.780,-0.450
7.200,-0.755,-0.430
7.203,-0.730,-0.415
7.206,-0.710,-0.390
7.208,-0.700,-0.380
7.211,-0.690,-0.385
7.214,-0.680,-0.375
7.217,-0.670,-0.375
7.219,-0.665,-0.375
7.222,-0.665,-0.375
7.225,-0.660,-0.375
7.228,-0.650,-0.370
7.231,-0.640,-0.360
7.233,-0.625,-0.350
7.236,-0.625,-0.340
7.239,-0.610,-0.335
7.242,-0.610,-0.315
7.244,-0.605,-0.330
7.247,-0.610,-0.335
7.250,-0.615,-0.325
7.253,-0.620,-0.325
7.256,-0.615,-0.330
7.258,-0.615,-0.330
7.261,-0.610,-0.305
7.264,-0.620,-0.305
7.267,-0.615,-0.305
7.269,-0.600,-0.295
7.272,-0.585,-0.300
7.275,-0.590,-0.300
7.278,-0.580,-0.305
7.281,-0.575,-0.305
7.283,-0.590,-0.310
7.286,-0.575,-0.320
7.289,-0.585,-0.325
7.292,-0.590,-0.320
7.294,-0.585,-0.315
7.297,-0.585,-0.315
7.300,-0.575,-0.280
7.303,-0.575,-0.260
7.306,-0.565,-0.250
7.308,-0.555,-0.250
7.311,-0.560,-0.260
7.314,-0.545,-0.250
7.317,-0.555,-0.265
7.319,-0.565,-0.265
7.322,-0.570,-0.265
7.325,-0.575,-0.260
7.328,-0.590,-0.260
7.331,-0.600,-0.255
7.333,-0.585,-0.260
7.336,-0.595,-0.255
7.339,-0.590,-0.245
7.342,-0.575,-0.245
7.344,-0.570,-0.260
7.347,-0.560,-0.260
7.350,-0.575,-0.275
7.353,-0.570,-0.280
7.356,-0.580,-0.300
7.358,-0.595,-0.300
7.361,-0.585,-0.295
7.364,-0.595,-0.290
7.367,-0.580,-0.285
7.369,-0.585,-0.270
7.372,-0.580,-0.270
7.375,-0.575,-0.275
7.378,-0.590,-0.280
7.381,-0.590,-0.290
7.383,-0.600,-0.285
7.386,-0.615,-0.310
7.389,-0.625,-0.320
7.392,-0.610,-0.325
7.394,-0.630,-0.310
7.397,-0.625,-0.320
7.400,-0.620,-0.310
7.403,-0.605,-0.300
7.406,-0.605,-0.295
7.408,-0.610,-0.295
7.411,-0.605,-0.305
7.414,-0.605,-0.315
7.417,-0.625,-0.325
7.419,-0.625,-0.335
7.422,-0.625,-0.340
7.425,-0.620,-0.345
7.428,-0.610,-0.355
7.431,-0.600,-0.335
7.433,-0.585,-0.330
7.436,-0.595,-0.320
7.439,-0.570,-0.315
7.442,-0.575,-0.300
7.444,-0.585,-0.320
7.447,-0.570,-0.320
7.450,-0.580,-0.340
7.453,-0.585,-0.355
7.456,-0.600,-0.350
7.458,-0.600,-0.360
7.461,-0.600,-0.350
7.464,-0.600,-0.345
7.467,-0.600,-0.335
7.469,-0.595,-0.335
7.472,-0.590,-0.330
7.475,-0.575,-0.320
7.478,-0.570,-0.335
7.481,-0.570,-0.330
7.483,-0.560,-0.335
7.486,-0.565,-0.355
7.489,-0.570,-0.355
7.492,-0.580,-0.365
7.494,-0.585,-0.345
7.497,-0.585,-0.350
7.500,-0.575,-0.345
7.503,-0.555,-0.335
7.506,-0.565,-0.335
7.508,-0.550,-0.335
7.511,-0.560,-0.330
7.514,-0.550,-0.340
7.517,-0.560,-0.340
7.519,-0.560,-0.350
7.522,-0.585,-0.360
7.525,-0.600,-0.360
7.528,-0.630,-0.345
7.531,-0.630,-0.340
7.533,-0.625,-0.320
7.536,-0.585,-0.290
7.539,-0.485,-0.235
7.542,-0.325,-0.150
7.544,-0.110,-0.055
7.547,0.125,0.030
7.550,0.420,0.115
7.553,0.730,0.200
7.556,1.025,0.265
7.558,1.305,0.340
7.561,1.520,0.420
7.564,1.670,0.530
7.567,1.710,0.640
7.569,1.705,0.745
7.572,1.640,0.795
7.575,1.480,0.710
7.578,1.205,0.470
7.581,0.785,0.110
7.583,0.265,-0.325
7.586,-0.285,-0.790
7.589,-0.675,-1.180
7.592,-0.875,-1.400
7.594,-0.900,-1.425
7.597,-0.870,-1.300
7.600,-0.775,-1.105
7.603,-0.720,-0.895
7.606,-0.690,-0.750
7.608,-0.675,-0.655
7.611,-0.700,-0.620
7.614,-0.730,-0.580
7.617,-0.760,-0.555
7.619,-0.780,-0.535
7.622,-0.785,-0.520
7.625,-0.790,-0.480
7.628,-0.780,-0.455
7.631,-0.775,-0.425
7.633,-0.770,-0.400
7.636,-0.760,-0.390
7.639,-0.755,-0.380
7.642,-0.760,-0.375
7.644,-0.760,-0.375
7.647,-0.755,-0.385
7.650,-0.760,-0.385
7.653,-0.770,-0.385
7.656,-0.770,-0.400
7.658,-0.790,-0.395
7.661,-0.775,-0.385
7.664,-0.790,-0.380
7.667,-0.775,-0.365
7.669,-0.785,-0.365
7.672,-0.780,-0.345
7.675,-0.775,-0.350
7.678,-0.780,-0.355
7.681,-0.795,-0.350
7.683,-0.795,-0.360
7.686,-0.815,-0.365
7.689,-0.820,-0.375
7.692,-0.830,-0.385
7.694,-0.825,-0.375
7.697,-0.840,-0.375
7.700,-0.825,-0.365
7.703,-0.835,-0.355
7.706,-0.845,-0.355
7.708,-0.845,-0.345
7.711,-0.855,-0.355
7.714,-0.860,-0.355
7.717,-0.870,-0.370
7.719,-0.875,-0.375
7.722,-0.890,-0.380
7.725,-0.890,-0.395
7.728,-0.895,-0.380
7.731,-0.910,-0.375
7.733,-0.900,-0.360
7.736,-0.910,-0.350
7.739,-0.900,-0.330
7.742,-0.905,-0.345
7.744,-0.910,-0.350
7.747,-0.920,-0.350
7.750,-0.940,-0.365
7.753,-0.965,-0.375
7.756,-0.975,-0.380
7.758,-0.990,-0.385
7.761,-0.995,-0.390
7.764,-1.010,-0.380
7.767,-1.005,-0.380
7.769,-1.005,-0.380
7.772,-1.005,-0.370
7.775,-1.010,-0.375
7.778,-1.010,-0.385
7.781,-1.035,-0.395
7.783,-1.055,-0.410
7.786,-1.070,-0.420
7.789,-1.100,-0.445
7.792,-1.110,-0.455
7.794,-1.120,-0.465
7.797,-1.125,-0.480
7.800,-1.140,-0.485
7.803,-1.150,-0.490
7.806,-1.150,-0.495
7.808,-1.155,-0.505
7.811,-1.150,-0.535
7.814,-1.155,-0.560
7.817,-1.180,-0.565
7.819,-1.205,-0.605
7.822,-1.215,-0.610
7.825,-1.235,-0.630
7.828,-1.245,-0.635
7.831,-1.235,-0.635
7.833,-1.225,-0.635
7.836,-1.205,-0.650
7.839,-1.190,-0.645
7.842,-1.165,-0.635
7.844,-1.145,-0.650
7.847,-1.135,-0.640
7.850,-1.115,-0.645
7.853,-1.100,-0.640
7.856,-1.070,-0.635
7.858,-1.055,-0.630
7.861,-1.020,-0.610
7.864,-1.015,-0.595
7.867,-0.970,-0.565
7.869,-0.925,-0.555
7.872,-0.905,-0.530
7.875,-0.875,-0.505
7.878,-0.865,-0.500
7.881,-0.855,-0.485
7.883,-0.840,-0.485
7.886,-0.840,-0.480
7.889,-0.835,-0.480
7.892,-0.840,-0.470
7.894,-0.810,-0.465
7.897,-0.800,-0.450
7.900,-0.765,-0.415
7.903,-0.765,-0.415
7.906,-0.745,-0.400
7.908,-0.740,-0.395
7.911,-0.740,-0.390
7.914,-0.725,-0.405
7.917,-0.725,-0.395
7.919,-0.735,-0.405
7.922,-0.735,-0.390
7.925,-0.725,-0.405
7.928,-0.720,-0.390
7.931,-0.700,-0.375
7.933,-0.685,-0.360
7.936,-0.680,-0.345
7.939,-0.660,-0.340
7.942,-0.650,-0.330
7.944,-0.650,-0.335
7.947,-0.635,-0.325
7.950,-0.630,-0.325
7.953,-0.630,-0.335
7.956,-0.635,-0.335
7.958,-0.630,-0.340
7.961,-0.620,-0.335
7.964,-0.635,-0.330
7.967,-0.635,-0.330
7.969,-0.610,-0.320
7.972,-0.590,-0.315
7.975,-0.575,-0.310
7.978,-0.560,-0.315
7.981,-0.555,-0.310
7.983,-0.550,-0.320
7.986,-0.555,-0.335
7.989,-0.550,-0.335
7.992,-0.550,-0.330
7.994,-0.560,-0.325
7.997,-0.545,-0.310
8.000,-0.545,-0.295
8.003,-0.535,-0.295
8.006,-0.525,-0.275
8.008,-0.525,-0.275
8.011,-0.510,-0.290
8.014,-0.525,-0.285
8.017,-0.540,-0.300
8.019,-0.550,-0.300
8.022,-0.570,-0.310
8.025,-0.575,-0.300
8.028,-0.570,-0.300
8.031,-0.575,-0.300
8.033,-0.580,-0.290
8.036,-0.595,-0.285
8.039,-0.590,-0.280
8.042,-0.595,-0.285
8.044,-0.595,-0.290
8.047,-0.610,-0.275
8.050,-0.615,-0.295
8.053,-0.635,-0.305
8.056,-0.645,-0.320
8.058,-0.665,-0.325
8.061,-0.680,-0.315
8.064,-0.665,-0.315
8.067,-0.680,-0.310
8.069,-0.670,-0.305
8.072,-0.685,-0.305
8.075,-0.665,-0.300
8.078,-0.675,-0.315
8.081,-0.685,-0.310
8.083,-0.685,-0.335
8.086,-0.710,-0.340
8.089,-0.705,-0.345
8.092,-0.720,-0.355
8.094,-0.720,-0.340
8.097,-0.705,-0.335
8.100,-0.695,-0.335
8.103,-0.675,-0.330
8.106,-0.660,-0.320
8.108,-0.660,-0.320
8.111,-0.665,-0.320
8.114,-0.665,-0.325
8.117,-0.675,-0.335
8.119,-0.675,-0.335
8.122,-0.680,-0.345
8.125,-0.685,-0.335
8.128,-0.670,-0.320
8.131,-0.650,-0.330
8.133,-0.640,-0.325
8.136,-0.620,-0.310
8.139,-0.610,-0.315
8.142,-0.590,-0.305
8.144,-0.590,-0.305
8.147,-0.585,-0.320
8.150,-0.585,-0.340
8.153,-0.590,-0.345
8.156,-0.585,-0.355
8.158,-0.595,-0.355
8.161,-0.585,-0.340
8.164,-0.580,-0.335
8.167,-0.575,-0.335
8.169,-0.565,-0.325
8.172,-0.545,-0.320
8.175,-0.545,-0.315
8.178,-0.545,-0.330
8.181,-0.555,-0.315
8.183,-0.555,-0.335
8.186,-0.575,-0.335
8.189,-0.585,-0.350
8.192,-0.590,-0.355
8.194,-0.600,-0.345
8.197,-0.600,-0.355
8.200,-0.605,-0.340
8.203,-0.600,-0.340
8.206,-0.605,-0.335
8.208,-0.625,-0.340
8.211,-0.635,-0.350
8.214,-0.655,-0.350
8.217,-0.665,-0.370
8.219,-0.685,-0.375
8.222,-0.700,-0.385
8.225,-0.705,-0.390
8.228,-0.715,-0.395
8.231,-0.725,-0.390
8.233,-0.720,-0.395
8.236,-0.735,-0.400
8.239,-0.735,-0.400
8.242,-0.720,-0.380
8.244,-0.715,-0.400
8.247,-0.705,-0.385
8.250,-0.705,-0.380
8.253,-0.715,-0.380
8.256,-0.710,-0.390
8.258,-0.710,-0.400
8.261,-0.720,-0.385
8.264,-0.715,-0.380
8.267,-0.710,-0.365
8.269,-0.685,-0.350
8.272,-0.670,-0.350
8.275,-0.635,-0.340
8.278,-0.635,-0.340
8.281,-0.630,-0.350
8.283,-0.645,-0.340
8.286,-0.640,-0.355
8.289,-0.640,-0.355
8.292,-0.645,-0.375
8.294,-0.630,-0.350
8.297,-0.635,-0.350
8.300,-0.610,-0.335
8.303,-0.595,-0.325
8.306,-0.580,-0.315
8.308,-0.570,-0.305
8.311,-0.565,-0.315
8.314,-0.565,-0.315
8.317,-0.570,-0.325
8.319,-0.580,-0.335
8.322,-0.615,-0.330
8.325,-0.645,-0.320
8.328,-0.660,-0.320
8.331,-0.625,-0.295
8.333,-0.520,-0.245
8.336,-0.370,-0.170
8.339,-0.165,-0.075
8.342,0.085,0.015
8.344,0.350,0.090
8.347,0.650,0.195
8.350,0.955,0.255
8.353,1.235,0.325
8.356,1.470,0.390
8.358,1.635,0.465
8.361,1.730,0.565
8.364,1.750,0.670
8.367,1.705,0.780
8.369,1.620,0.800
8.372,1.505,0.715
8.375,1.270,0.495
8.378,0.885,0.130
8.381,0.360,-0.295
8.383,-0.175,-0.740
8.386,-0.605,-1.140
8.389,-0.850,-1.400
8.392,-0.925,-1.485
8.394,-0.895,-1.390
8.397,-0.840,-1.215
8.400,-0.775,-1.010
8.403,-0.730,-0.850
8.406,-0.715,-0.725
8.408,-0.735,-0.665
8.411,-0.765,-0.610
8.414,-0.790,-0.580
8.417,-0.820,-0.555
8.419,-0.830,-0.525
8.422,-0.850,-0.505
8.425,-0.850,-0.480
8.428,-0.840,-0.460
8.431,-0.835,-0.430
8.433,-0.830,-0.405
8.436,-0.825,-0.375
8.439,-0.815,-0.360
8.442,-0.810,-0.355
8.444,-0.820,-0.360
8.447,-0.835,-0.350
8.450,-0.835,-0.355
8.453,-0.855,-0.360
8.456,-0.860,-0.370
8.458,-0.870,-0.370
8.461,-0.885,-0.365
8.464,-0.870,-0.365
8.467,-0.875,-0.365
8.469,-0.860,-0.350
8.472,-0.850,-0.345
8.475,-0.855,-0.345
8.478,-0.840,-0.345
8.481,-0.850,-0.345
8.483,-0.860,-0.365
8.486,-0.870,-0.365
8.489,-0.875,-0.370
8.492,-0.870,-0.380
8.494,-0.880,-0.385
8.497,-0.875,-0.370
8.500,-0.885,-0.350
8.503,-0.880,-0.350
8.506,-0.875,-0.355
8.508,-0.880,-0.365
8.511,-0.890,-0.370
8.514,-0.900,-0.375
8.517,-0.905,-0.385
8.519,-0.905,-0.395
8.522,-0.910,-0.390
8.525,-0.910,-0.400
8.528,-0.930,-0.390
8.531,-0.935,-0.380
8.533,-0.935,-0.370
8.536,-0.940,-0.375
8.539,-0.945,-0.385
8.542,-0.945,-0.380
8.544,-0.955,-0.395
8.547,-0.965,-0.405
8.550,-0.980,-0.415
8.553,-0.985,-0.430
8.556,-1.000,-0.420
8.558,-1.005,-0.435
8.561,-1.020,-0.430
8.564,-1.025,-0.420
8.567,-1.035,-0.425
8.569,-1.040,-0.415
8.572,-1.025,-0.420
8.575,-1.050,-0.415
8.578,-1.060,-0.430
8.581,-1.080,-0.435
8.583,-1.110,-0.460
8.586,-1.125,-0.470
8.589,-1.165,-0.480
8.592,-1.175,-0.495
8.594,-1.175,-0.505
8.597,-1.190,-0.505
8.600,-1.195,-0.510
8.603,-1.205,-0.530
8.606,-1.215,-0.535
8.608,-1.215,-0.540
8.611,-1.225,-0.570
8.614,-1.245,-0.585
8.617,-1.265,-0.600
8.619,-1.285,-0.630
8.622,-1.315,-0.640
8.625,-1.325,-0.665
8.628,-1.340,-0.670
8.631,-1.340,-0.675
8.633,-1.330,-0.680
8.636,-1.325,-0.685
8.639,-1.320,-0.695
8.642,-1.300,-0.690
8.644,-1.285,-0.715
8.647,-1.275,-0.720
8.650,-1.250,-0.715
8.653,-1.215,-0.730
8.656,-1.205,-0.725
8.658,-1.175,-0.715
8.661,-1.155,-0.695
8.664,-1.130,-0.670
8.667,-1.085,-0.660
8.669,-1.040,-0.625
8.672,-1.000,-0.620
8.675,-0.955,-0.585
8.678,-0.905,-0.585
8.681,-0.885,-0.550
8.683,-0.875,-0.555
8.686,-0.850,-0.540
8.689,-0.840,-0.545
8.692,-0.825,-0.525
8.694,-0.810,-0.515
8.697,-0.790,-0.495
8.700,-0.770,-0.475
8.703,-0.755,-0.465
8.706,-0.735,-0.445
8.708,-0.735,-0.425
8.711,-0.720,-0.430
8.714,-0.715,-0.430
8.717,-0.715,-0.430
8.719,-0.710,-0.425
8.722,-0.705,-0.415
8.725,-0.705,-0.415
8.728,-0.700,-0.415
8.731,-0.695,-0.405
8.733,-0.690,-0.400
8.736,-0.680,-0.385
8.739,-0.675,-0.370
8.742,-0.660,-0.370
8.744,-0.655,-0.380
8.747,-0.655,-0.380
8.750,-0.675,-0.390
8.753,-0.665,-0.405
8.756,-0.665,-0.400
8.758,-0.665,-0.405
8.761,-0.670,-0.395
8.764,-0.665,-0.395
8.767,-0.655,-0.375
8.769,-0.640,-0.370
8.772,-0.625,-0.350
8.775,-0.625,-0.340
8.778,-0.620,-0.350
8.781,-0.610,-0.345
8.783,-0.610,-0.335
8.786,-0.600,-0.345
8.789,-0.610,-0.340
8.792,-0.605,-0.340
8.794,-0.615,-0.325
8.797,-0.600,-0.315
8.800,-0.605,-0.305
8.803,-0.600,-0.290
8.806,-0.600,-0.290
8.808,-0.595,-0.285
8.811,-0.600,-0.290
8.814,-0.595,-0.275
8.817,-0.590,-0.285
8.819,-0.595,-0.285
8.822,-0.600,-0.275
8.825,-0.600,-0.285
8.828,-0.605,-0.280
8.831,-0.600,-0.265
8.833,-0.600,-0.260
8.836,-0.600,-0.250
8.839,-0.595,-0.245
8.842,-0.590,-0.240
8.844,-0.600,-0.250
8.847,-0.600,-0.255
8.850,-0.605,-0.260
8.853,-0.615,-0.270
8.856,-0.615,-0.270
8.858,-0.625,-0.265
8.861,-0.625,-0.285
8.864,-0.615,-0.270
8.867,-0.615,-0.265
8.869,-0.610,-0.265
8.872,-0.595,-0.265
8.875,-0.600,-0.270
8.878,-0.590,-0.285
8.881,-0.605,-0.285
8.883,-0.605,-0.285
8.886,-0.600,-0.285
8.889,-0.620,-0.295
8.892,-0.610,-0.295
8.894,-0.610,-0.280
8.897,-0.605,-0.280
8.900,-0.595,-0.285
8.903,-0.590,-0.275
8.906,-0.560,-0.275
8.908,-0.550,-0.265
8.911,-0.550,-0.270
8.914,-0.545,-0.280
8.917,-0.555,-0.285
8.919,-0.555,-0.285
8.922,-0.570,-0.290
8.925,-0.565,-0.300
8.928,-0.580,-0.295
8.931,-0.595,-0.285
8.933,-0.625,-0.275
8.936,-0.650,-0.270
8.939,-0.670,-0.260
8.942,-0.640,-0.240
8.944,-0.570,-0.220
8.947,-0.430,-0.155
8.950,-0.255,-0.080
8.953,-0.020,0.020
8.956,0.270,0.120
8.958,0.595,0.210
8.961,0.955,0.310
8.964,1.275,0.410
8.967,1.520,0.515
8.969,1.680,0.615
8.972,1.735,0.725
8.975,1.715,0.830
8.978,1.605,0.830
8.981,1.395,0.705
8.983,1.030,0.400
8.986,0.505,-0.060
8.989,-0.065,-0.595
8.992,-0.545,-1.065
8.994,-0.810,-1.375
8.997,-0.900,-1.480
9.000,-0.860,-1.375
9.003,-0.745,-1.155
9.006,-0.655,-0.915
9.008,-0.600,-0.725
9.011,-0.600,-0.605
9.014,-0.625,-0.535
9.017,-0.660,-0.505
9.019,-0.715,-0.505
9.022,-0.735,-0.475
9.025,-0.750,-0.460
9.028,-0.755,-0.430
9.031,-0.735,-0.405
9.033,-0.725,-0.365
9.036,-0.720,-0.350
9.039,-0.725,-0.340
9.042,-0.720,-0.330
9.044,-0.730,-0.330
9.047,-0.725,-0.330
9.050,-0.740,-0.335
9.053,-0.730,-0.340
9.056,-0.750,-0.325
9.058,-0.755,-0.325
9.061,-0.765,-0.315
9.064,-0.775,-0.305
9.067,-0.760,-0.290
9.069,-0.760,-0.285
9.072,-0.765,-0.270
9.075,-0.760,-0.280
9.078,-0.795,-0.285
9.081,-0.795,-0.290
9.083,-0.810,-0.300
9.086,-0.820,-0.300
9.089,-0.830,-0.315
9.092,-0.840,-0.315
9.094,-0.840,-0.305
9.097,-0.855,-0.295
9.100,-0.850,-0.300
9.103,-0.840,-0.300
9.106,-0.845,-0.300
9.108,-0.835,-0.295
9.111,-0.840,-0.320
9.114,-0.850,-0.320
9.117,-0.865,-0.335
9.119,-0.870,-0.345
9.122,-0.875,-0.360
9.125,-0.885,-0.365
9.128,-0.905,-0.365
9.131,-0.915,-0.360
9.133,-0.920,-0.365
9.136,-0.925,-0.340
9.139,-0.930,-0.345
9.142,-0.925,-0.340
9.144,-0.930,-0.360
9.147,-0.935,-0.360
9.150,-0.925,-0.370
9.153,-0.950,-0.380
9.156,-0.960,-0.385
9.158,-0.970,-0.395
9.161,-0.990,-0.385
9.164,-0.985,-0.380
9.167,-0.990,-0.380
9.169,-0.990,-0.380
9.172,-0.995,-0.365
9.175,-0.995,-0.365
9.178,-0.995,-0.380
9.181,-1.010,-0.395
9.183,-1.020,-0.405
9.186,-1.040,-0.420
9.189,-1.055,-0.435
9.192,-1.065,-0.435
9.194,-1.070,-0.455
9.197,-1.075,-0.470
9.200,-1.075,-0.460
9.203,-1.070,-0.465
9.206,-1.075,-0.460
9.208,-1.070,-0.475
9.211,-1.080,-0.485
9.214,-1.080,-0.490
9.217,-1.090,-0.505
9.219,-1.100,-0.535
9.222,-1.105,-0.545
9.225,-1.110,-0.555
9.228,-1.115,-0.550
9.231,-1.110,-0.560
9.233,-1.095,-0.570
9.236,-1.080,-0.555
9.239,-1.050,-0.560
9.242,-1.035,-0.550
9.244,-1.015,-0.555
9.247,-0.985,-0.550
9.250,-0.960,-0.560
9.253,-0.935,-0.545
9.256,-0.915,-0.545
9.258,-0.885,-0.530
9.261,-0.855,-0.515
9.264,-0.840,-0.495
9.267,-0.815,-0.480
9.269,-0.790,-0.450
9.272,-0.765,-0.445
9.275,-0.735,-0.415
9.278,-0.700,-0.420
9.281,-0.710,-0.410
9.283,-0.715,-0.430
9.286,-0.705,-0.425
9.289,-0.710,-0.430
9.292,-0.725,-0.440
9.294,-0.725,-0.440
9.297,-0.725,-0.435
9.300,-0.705,-0.435
9.303,-0.680,-0.425
9.306,-0.680,-0.425
9.308,-0.670,-0.420
9.311,-0.675,-0.415
9.314,-0.670,-0.425
9.317,-0.675,-0.435
9.319,-0.675,-0.430
9.322,-0.680,-0.440
9.325,-0.685,-0.455
9.328,-0.695,-0.440
9.331,-0.685,-0.435
9.333,-0.690,-0.425
9.336,-0.685,-0.425
9.339,-0.690,-0.420
9.342,-0.675,-0.410
9.344,-0.670,-0.425
9.347,-0.660,-0.425
9.350,-0.680,-0.425
9.353,-0.680,-0.420
9.356,-0.670,-0.415
9.358,-0.665,-0.415
9.361,-0.660,-0.410
9.364,-0.650,-0.400
9.367,-0.645,-0.380
9.369,-0.625,-0.370
9.372,-0.615,-0.365
9.375,-0.605,-0.360
9.378,-0.615,-0.360
9.381,-0.610,-0.360
9.383,-0.610,-0.360
9.386,-0.620,-0.370
9.389,-0.605,-0.365
9.392,-0.615,-0.375
9.394,-0.615,-0.365
9.397,-0.605,-0.370
9.400,-0.600,-0.355
9.403,-0.595,-0.345
9.406,-0.585,-0.335
9.408,-0.580,-0.340
9.411,-0.565,-0.325
9.414,-0.570,-0.335
9.417,-0.575,-0.340
9.419,-0.580,-0.350
9.422,-0.585,-0.355
9.425,-0.585,-0.355
9.428,-0.585,-0.355
9.431,-0.565,-0.365
9.433,-0.550,-0.345
9.436,-0.550,-0.335
9.439,-0.550,-0.330
9.442,-0.525,-0.315
9.444,-0.535,-0.335
9.447,-0.540,-0.330
9.450,-0.545,-0.355
9.453,-0.560,-0.365
9.456,-0.560,-0.360
9.458,-0.585,-0.365
9.461,-0.590,-0.365
9.464,-0.600,-0.350
9.467,-0.595,-0.365
9.469,-0.590,-0.350
9.472,-0.595,-0.345
9.475,-0.595,-0.345
9.478,-0.595,-0.360
9.481,-0.595,-0.360
9.483,-0.605,-0.385
9.486,-0.605,-0.395
9.489,-0.620,-0.395
9.492,-0.640,-0.415
9.494,-0.645,-0.405
9.497,-0.645,-0.410
9.500,-0.635,-0.400
9.503,-0.635,-0.400
9.506,-0.630,-0.395
9.508,-0.625,-0.385
9.511,-0.625,-0.385
9.514,-0.630,-0.390
9.517,-0.620,-0.395
9.519,-0.635,-0.420
9.522,-0.630,-0.420
9.525,-0.635,-0.425
9.528,-0.635,-0.415
9.531,-0.630,-0.425
9.533,-0.620,-0.410
9.536,-0.615,-0.400
9.539,-0.620,-0.390
9.542,-0.620,-0.365
9.544,-0.595,-0.365
9.547,-0.585,-0.355
9.550,-0.590,-0.360
9.553,-0.605,-0.355
9.556,-0.595,-0.360
9.558,-0.600,-0.360
9.561,-0.625,-0.345
9.564,-0.660,-0.335
9.567,-0.680,-0.335
9.569,-0.675,-0.325
9.572,-0.660,-0.305
9.575,-0.580,-0.250
9.578,-0.445,-0.200
9.581,-0.245,-0.115
9.583,-0.005,-0.020
9.586,0.270,0.075
9.589,0.590,0.150
9.592,0.900,0.225
9.594,1.210,0.320
9.597,1.460,0.410
9.600,1.625,0.510
9.603,1.695,0.620
9.606,1.685,0.735
9.608,1.630,0.780
9.611,1.500,0.710
9.614,1.235,0.485
9.617,0.815,0.105
9.619,0.270,-0.365
9.622,-0.240,-0.840
9.625,-0.600,-1.210
9.628,-0.780,-1.395
9.631,-0.820,-1.375
9.633,-0.760,-1.230
9.636,-0.685,-1.035
9.639,-0.640,-0.855
9.642,-0.600,-0.730
9.644,-0.595,-0.660
9.647,-0.615,-0.620
9.650,-0.660,-0.585
9.653,-0.690,-0.575
9.656,-0.715,-0.560
9.658,-0.710,-0.540
9.661,-0.710,-0.495
9.664,-0.715,-0.475
9.667,-0.725,-0.450
9.669,-0.745,-0.435
9.672,-0.755,-0.430
9.675,-0.770,-0.425
9.678,-0.775,-0.430
9.681,-0.790,-0.445
9.683,-0.800,-0.440
9.686,-0.810,-0.450
9.689,-0.820,-0.465
9.692,-0.840,-0.460
9.694,-0.845,-0.450
9.697,-0.840,-0.445
9.700,-0.850,-0.425
9.703,-0.845,-0.425
9.706,-0.835,-0.420
9.708,-0.835,-0.405
9.711,-0.855,-0.430
9.714,-0.870,-0.430
9.717,-0.885,-0.430
9.719,-0.895,-0.445
9.722,-0.910,-0.460
9.725,-0.920,-0.470
9.728,-0.935,-0.465
9.731,-0.935,-0.455
9.733,-0.935,-0.455
9.736,-0.955,-0.450
9.739,-0.940,-0.435
9.742,-0.940,-0.425
9.744,-0.945,-0.440
9.747,-0.955,-0.435
9.750,-0.965,-0.440
9.753,-0.965,-0.450
9.756,-0.945,-0.440
9.758,-0.950,-0.440
9.761,-0.950,-0.425
9.764,-0.950,-0.410
9.767,-0.945,-0.410
9.769,-0.930,-0.390
9.772,-0.925,-0.395
9.775,-0.925,-0.390
9.778,-0.920,-0.405
9.781,-0.915,-0.405
9.783,-0.930,-0.415
9.786,-0.930,-0.430
9.789,-0.955,-0.440
9.792,-0.960,-0.450
9.794,-0.975,-0.450
9.797,-0.975,-0.465
9.800,-0.970,-0.470
9.803,-0.980,-0.480
9.806,-0.995,-0.480
9.808,-0.995,-0.490
9.811,-1.015,-0.520
9.814,-1.035,-0.525
9.817,-1.060,-0.550
9.819,-1.095,-0.575
9.822,-1.115,-0.600
9.825,-1.130,-0.620
9.828,-1.160,-0.635
9.831,-1.170,-0.645
9.833,-1.185,-0.655
9.836,-1.200,-0.675
9.839,-1.190,-0.680
9.842,-1.210,-0.685
9.844,-1.230,-0.715
9.847,-1.250,-0.735
9.850,-1.265,-0.755
9.853,-1.290,-0.775
9.856,-1.310,-0.785
9.858,-1.310,-0.795
9.861,-1.310,-0.790
9.864,-1.290,-0.800
9.867,-1.270,-0.785
9.869,-1.225,-0.775
9.872,-1.200,-0.775
9.875,-1.165,-0.750
9.878,-1.140,-0.750
9.881,-1.105,-0.735
9.883,-1.075,-0.735
9.886,-1.050,-0.720
9.889,-1.025,-0.710
9.892,-0.990,-0.695
9.894,-0.970,-0.670
9.897,-0.935,-0.640
9.900,-0.910,-0.615
9.903,-0.855,-0.585
9.906,-0.830,-0.560
9.908,-0.805,-0.550
9.911,-0.785,-0.540
9.914,-0.770,-0.530
9.917,-0.775,-0.525
9.919,-0.765,-0.520
9.922,-0.760,-0.520
9.925,-0.750,-0.510
9.928,-0.740,-0.495
9.931,-0.720,-0.505
9.933,-0.705,-0.485
9.936,-0.680,-0.485
9.939,-0.675,-0.470
9.942,-0.665,-0.460
9.944,-0.660,-0.455
9.947,-0.650,-0.450
9.950,-0.645,-0.460
9.953,-0.630,-0.460
9.956,-0.635,-0.455
9.958,-0.635,-0.470
9.961,-0.645,-0.455
9.964,-0.620,-0.465
9.967,-0.620,-0.450
9.969,-0.610,-0.445
9.972,-0.605,-0.440
9.975,-0.595,-0.435
9.978,-0.595,-0.440
9.981,-0.600,-0.445
9.983,-0.615,-0.440
9.986,-0.635,-0.460
9.989,-0.625,-0.470
9.992,-0.635,-0.460
9.994,-0.645,-0.465
9.997,-0.635,-0.455
10.000,-0.635,-0.455
10.003,-0.625,-0.445
10.006,-0.620,-0.435
10.008,-0.600,-0.430
10.011,-0.595,-0.435
10.014,-0.595,-0.435
10.017,-0.605,-0.455
10.019,-0.620,-0.455
10.022,-0.625,-0.465
10.025,-0.645,-0.470
10.028,-0.655,-0.465
10.031,-0.655,-0.465
10.033,-0.645,-0.445
10.036,-0.640,-0.440
10.039,-0.630,-0.445
10.042,-0.615,-0.430
10.044,-0.620,-0.435
10.047,-0.610,-0.440
10.050,-0.625,-0.440
10.053,-0.630,-0.445
10.056,-0.630,-0.450
10.058,-0.625,-0.440
10.061,-0.630,-0.435
10.064,-0.625,-0.435
10.067,-0.620,-0.420
10.069,-0.615,-0.400
10.072,-0.605,-0.395
10.075,-0.600,-0.395
10.078,-0.595,-0.405
10.081,-0.590,-0.410
10.083,-0.600,-0.400
10.086,-0.605,-0.425
10.089,-0.615,-0.445
10.092,-0.610,-0.435
10.094,-0.610,-0.435
10.097,-0.615,-0.440
10.100,-0.625,-0.425
10.103,-0.600,-0.420
10.106,-0.595,-0.410
10.108,-0.615,-0.390
10.111,-0.615,-0.415
10.114,-0.610,-0.415
10.117,-0.605,-0.435
10.119,-0.610,-0.435
10.122,-0.615,-0.440
10.125,-0.625,-0.465
10.128,-0.620,-0.450
10.131,-0.635,-0.445
10.133,-0.635,-0.440
10.136,-0.620,-0.435
10.139,-0.625,-0.435
10.142,-0.605,-0.435
10.144,-0.610,-0.450
10.147,-0.640,-0.440
10.150,-0.630,-0.455
10.153,-0.645,-0.465
10.156,-0.650,-0.470
10.158,-0.665,-0.490
10.161,-0.660,-0.480
10.164,-0.665,-0.475
10.167,-0.670,-0.470
10.169,-0.660,-0.460
10.172,-0.655,-0.465
10.175,-0.640,-0.460
10.178,-0.635,-0.470
10.181,-0.640,-0.470
10.183,-0.645,-0.485
10.186,-0.655,-0.500
10.189,-0.655,-0.500
10.192,-0.660,-0.510
10.194,-0.670,-0.505
10.197,-0.660,-0.495
10.200,-0.670,-0.490
10.203,-0.670,-0.495
10.206,-0.660,-0.485
10.208,-0.655,-0.490
10.211,-0.655,-0.485
10.214,-0.655,-0.495
10.217,-0.640,-0.510
10.219,-0.665,-0.515
10.222,-0.665,-0.510
10.225,-0.660,-0.515
10.228,-0.660,-0.515
10.231,-0.655,-0.505
10.233,-0.645,-0.505
10.236,-0.650,-0.495
10.239,-0.640,-0.475
10.242,-0.630,-0.470
10.244,-0.610,-0.470
10.247,-0.615,-0.475
10.250,-0.615,-0.470
10.253,-0.645,-0.465
10.256,-0.645,-0.480
10.258,-0.635,-0.480
10.261,-0.650,-0.480
10.264,-0.645,-0.470
10.267,-0.630,-0.455
10.269,-0.635,-0.450
10.272,-0.630,-0.450
10.275,-0.615,-0.440
10.278,-0.625,-0.455
10.281,-0.630,-0.460
10.283,-0.640,-0.470
10.286,-0.645,-0.480
10.289,-0.645,-0.485
10.292,-0.655,-0.495
10.294,-0.650,-0.485
10.297,-0.650,-0.480
10.300,-0.650,-0.480
10.303,-0.645,-0.475
10.306,-0.640,-0.475
10.308,-0.635,-0.475
10.311,-0.630,-0.480
10.314,-0.640,-0.490
10.317,-0.640,-0.495
10.319,-0.655,-0.500
10.322,-0.655,-0.500
10.325,-0.655,-0.510
10.328,-0.670,-0.510
10.331,-0.670,-0.495
10.333,-0.660,-0.495
10.336,-0.645,-0.480
10.339,-0.645,-0.475
10.342,-0.640,-0.475
10.344,-0.635,-0.480
10.347,-0.645,-0.485
10.350,-0.655,-0.515
10.353,-0.655,-0.510
10.356,-0.675,-0.515
10.358,-0.675,-0.520
10.361,-0.685,-0.525
10.364,-0.695,-0.520
10.367,-0.695,-0.510
10.369,-0.685,-0.505
10.372,-0.685,-0.485
10.375,-0.675,-0.485
10.378,-0.670,-0.485
10.381,-0.685,-0.495
10.383,-0.680,-0.505
10.386,-0.685,-0.510
10.389,-0.720,-0.510
10.392,-0.720,-0.525
10.394,-0.710,-0.525
10.397,-0.705,-0.515
10.400,-0.715,-0.510
10.403,-0.705,-0.510
10.406,-0.700,-0.500
10.408,-0.690,-0.490
10.411,-0.675,-0.495
10.414,-0.680,-0.500
10.417,-0.680,-0.500
10.419,-0.680,-0.500
10.422,-0.690,-0.515
10.425,-0.685,-0.525
10.428,-0.680,-0.510
10.431,-0.670,-0.520
10.433,-0.670,-0.510
10.436,-0.660,-0.505
10.439,-0.665,-0.500
10.442,-0.655,-0.495
10.444,-0.680,-0.500
10.447,-0.665,-0.510
10.450,-0.675,-0.520
10.453,-0.685,-0.525
10.456,-0.675,-0.535
10.458,-0.680,-0.540
10.461,-0.670,-0.540
10.464,-0.660,-0.535
10.467,-0.650,-0.520
10.469,-0.635,-0.525
10.472,-0.630,-0.525
10.475,-0.640,-0.515
10.478,-0.630,-0.525
10.481,-0.645,-0.530
10.483,-0.665,-0.535
10.486,-0.675,-0.545
10.489,-0.680,-0.555
10.492,-0.680,-0.565
10.494,-0.665,-0.545
10.497,-0.655,-0.535
10.500,-0.650,-0.530
10.503,-0.650,-0.525
10.506,-0.640,-0.500
10.508,-0.635,-0.490
10.511,-0.630,-0.510
10.514,-0.635,-0.515
10.517,-0.640,-0.515
10.519,-0.660,-0.525
10.522,-0.660,-0.535
10.525,-0.690,-0.540
10.528,-0.680,-0.550
10.531,-0.685,-0.545
10.533,-0.685,-0.535
10.536,-0.680,-0.525
10.539,-0.670,-0.525
10.542,-0.655,-0.510
10.544,-0.650,-0.520
10.547,-0.655,-0.525
10.550,-0.665,-0.540
10.553,-0.675,-0.540
10.556,-0.690,-0.550
10.558,-0.705,-0.550
10.561,-0.720,-0.550
10.564,-0.710,-0.555
10.567,-0.710,-0.555
10.569,-0.715,-0.545
10.572,-0.710,-0.555
10.575,-0.715,-0.540
10.578,-0.705,-0.560
10.581,-0.705,-0.550
10.583,-0.700,-0.545
10.586,-0.700,-0.555
10.589,-0.705,-0.560
10.592,-0.715,-0.570
10.594,-0.705,-0.575
10.597,-0.695,-0.560
10.600,-0.700,-0.560
10.603,-0.685,-0.550
10.606,-0.675,-0.550
10.608,-0.665,-0.535
10.611,-0.660,-0.550
10.614,-0.665,-0.540
10.617,-0.665,-0.560
10.619,-0.665,-0.560
10.622,-0.665,-0.560
10.625,-0.650,-0.570
10.628,-0.645,-0.560
10.631,-0.630,-0.555
10.633,-0.625,-0.545
10.636,-0.620,-0.545
10.639,-0.620,-0.530
10.642,-0.620,-0.525
10.644,-0.615,-0.535
10.647,-0.615,-0.535
10.650,-0.625,-0.545
10.653,-0.625,-0.555
10.656,-0.640,-0.560
10.658,-0.645,-0.560
10.661,-0.630,-0.550
10.664,-0.625,-0.550
10.667,-0.620,-0.525
10.669,-0.620,-0.530
10.672,-0.620,-0.510
10.675,-0.610,-0.495
10.678,-0.620,-0.505
10.681,-0.620,-0.520
10.683,-0.605,-0.515
10.686,-0.620,-0.540
10.689,-0.655,-0.540
10.692,-0.675,-0.540
10.694,-0.700,-0.550
10.697,-0.725,-0.535
10.700,-0.720,-0.515
10.703,-0.650,-0.480
10.706,-0.525,-0.410
10.708,-0.350,-0.330
10.711,-0.135,-0.240
10.714,0.115,-0.150
10.717,0.380,-0.060
10.719,0.695,0.015
10.722,0.985,0.070
10.725,1.250,0.140
10.728,1.465,0.230
10.731,1.615,0.320
10.733,1.675,0.425
10.736,1.670,0.530
10.739,1.620,0.580
10.742,1.520,0.555
10.744,1.320,0.380
10.747,0.955,0.075
10.750,0.480,-0.335
10.753,-0.075,-0.790
10.756,-0.540,-1.195
10.758,-0.835,-1.470
10.761,-0.945,-1.570
10.764,-0.935,-1.510
10.767,-0.865,-1.330
10.769,-0.800,-1.150
10.772,-0.740,-0.995
10.775,-0.735,-0.890
10.778,-0.730,-0.830
10.781,-0.745,-0.785
10.783,-0.755,-0.760
10.786,-0.790,-0.725
10.789,-0.795,-0.710
10.792,-0.790,-0.690
10.794,-0.780,-0.650
10.797,-0.770,-0.605
10.800,-0.760,-0.580
10.803,-0.750,-0.565
10.806,-0.750,-0.540
10.808,-0.770,-0.535
10.811,-0.780,-0.530
10.814,-0.800,-0.540
10.817,-0.805,-0.540
10.819,-0.825,-0.545
10.822,-0.840,-0.560
10.825,-0.860,-0.565
10.828,-0.870,-0.565
10.831,-0.870,-0.565
10.833,-0.870,-0.555
10.836,-0.860,-0.535
10.839,-0.870,-0.535
10.842,-0.865,-0.535
10.844,-0.875,-0.530
10.847,-0.875,-0.530
10.850,-0.885,-0.535
10.853,-0.900,-0.540
10.856,-0.915,-0.560
10.858,-0.925,-0.575
10.861,-0.940,-0.570
10.864,-0.940,-0.575
10.867,-0.940,-0.575
10.869,-0.935,-0.565
10.872,-0.930,-0.575
10.875,-0.935,-0.570
10.878,-0.945,-0.585
10.881,-0.950,-0.600
10.883,-0.955,-0.605
10.886,-0.980,-0.630
10.889,-1.000,-0.630
10.892,-1.015,-0.640
10.894,-1.025,-0.630
10.897,-1.020,-0.635
10.900,-1.020,-0.635
10.903,-1.015,-0.615
10.906,-1.020,-0.615
10.908,-1.010,-0.610
10.911,-1.015,-0.625
10.914,-1.010,-0.630
10.917,-1.005,-0.640
10.919,-1.020,-0.655
10.922,-1.030,-0.665
10.925,-1.035,-0.670
10.928,-1.040,-0.675
10.931,-1.050,-0.675
10.933,-1.055,-0.675
10.936,-1.050,-0.665
10.939,-1.065,-0.650
10.942,-1.050,-0.650
10.944,-1.065,-0.660
10.947,-1.075,-0.665
10.950,-1.085,-0.680
10.953,-1.095,-0.685
10.956,-1.120,-0.705
10.958,-1.135,-0.715
10.961,-1.150,-0.725
10.964,-1.155,-0.735
10.967,-1.155,-0.740
10.969,-1.170,-0.750
10.972,-1.180,-0.750
10.975,-1.185,-0.770
10.978,-1.210,-0.775
10.981,-1.225,-0.800
10.983,-1.235,-0.820
10.986,-1.265,-0.845
10.989,-1.270,-0.870
10.992,-1.305,-0.880
10.994,-1.325,-0.900
10.997,-1.345,-0.915
11.000,-1.340,-0.930
11.003,-1.345,-0.935
11.006,-1.340,-0.935
11.008,-1.355,-0.945
11.011,-1.345,-0.975
11.014,-1.355,-0.985
11.017,-1.355,-0.995
11.019,-1.355,-1.000
11.022,-1.345,-1.010
11.025,-1.335,-1.035
11.028,-1.330,-1.030
11.031,-1.305,-1.020
11.033,-1.285,-1.000
11.036,-1.245,-1.000
11.039,-1.215,-0.970
11.042,-1.165,-0.945
11.044,-1.130,-0.930
11.047,-1.105,-0.920
11.050,-1.060,-0.895
11.053,-1.035,-0.890
11.056,-1.015,-0.870
11.058,-0.995,-0.835
11.061,-0.965,-0.820
11.064,-0.940,-0.795
11.067,-0.905,-0.765
11.069,-0.870,-0.740
11.072,-0.835,-0.715
11.075,-0.825,-0.690
11.078,-0.790,-0.680
11.081,-0.765,-0.665
11.083,-0.750,-0.655
11.086,-0.735,-0.635
11.089,-0.710,-0.630
11.092,-0.715,-0.620
11.094,-0.675,-0.615
11.097,-0.660,-0.585
11.100,-0.645,-0.575
11.103,-0.625,-0.565
11.106,-0.615,-0.555
11.108,-0.610,-0.540
11.111,-0.600,-0.530
11.114,-0.615,-0.535
11.117,-0.620,-0.530
11.119,-0.615,-0.535
11.122,-0.620,-0.555
11.125,-0.625,-0.550
11.128,-0.640,-0.550
11.131,-0.640,-0.545
11.133,-0.655,-0.535
11.136,-0.645,-0.530
11.139,-0.645,-0.520
11.142,-0.655,-0.505
11.144,-0.655,-0.515
11.147,-0.660,-0.505
11.150,-0.665,-0.520
11.153,-0.650,-0.530
11.156,-0.655,-0.535
11.158,-0.670,-0.535
11.161,-0.660,-0.525
11.164,-0.665,-0.510
11.167,-0.655,-0.525
11.169,-0.655,-0.515
11.172,-0.660,-0.505
11.175,-0.640,-0.490
11.178,-0.645,-0.505
11.181,-0.645,-0.485
11.183,-0.635,-0.500
11.186,-0.645,-0.500
11.189,-0.650,-0.505
11.192,-0.655,-0.515
11.194,-0.660,-0.520
11.197,-0.660,-0.515
11.200,-0.660,-0.505
11.203,-0.650,-0.500
11.206,-0.640,-0.490
11.208,-0.630,-0.475
11.211,-0.630,-0.480
11.214,-0.620,-0.465
11.217,-0.635,-0.485
11.219,-0.625,-0.495
11.222,-0.635,-0.495
11.225,-0.645,-0.505
11.228,-0.650,-0.500
11.231,-0.650,-0.505
11.233,-0.650,-0.495
11.236,-0.635,-0.505
11.239,-0.630,-0.490
11.242,-0.625,-0.480
11.244,-0.605,-0.490
11.247,-0.615,-0.490
11.250,-0.640,-0.495
11.253,-0.635,-0.505
11.256,-0.645,-0.510
11.258,-0.650,-0.520
11.261,-0.645,-0.510
11.264,-0.640,-0.510
11.267,-0.640,-0.495
11.269,-0.635,-0.480
11.272,-0.625,-0.465
11.275,-0.610,-0.455
11.278,-0.600,-0.465
11.281,-0.605,-0.460
11.283,-0.615,-0.465
11.286,-0.610,-0.465
11.289,-0.615,-0.480
11.292,-0.635,-0.475
11.294,-0.655,-0.480
11.297,-0.660,-0.465
11.300,-0.670,-0.470
11.303,-0.670,-0.465
11.306,-0.660,-0.480
11.308,-0.655,-0.470
11.311,-0.655,-0.490
11.314,-0.655,-0.505
11.317,-0.650,-0.510
11.319,-0.670,-0.530
11.322,-0.680,-0.535
11.325,-0.665,-0.540
11.328,-0.675,-0.535
11.331,-0.690,-0.520
11.333,-0.675,-0.515
11.336,-0.670,-0.510
11.339,-0.665,-0.515
11.342,-0.660,-0.510
11.344,-0.660,-0.515
11.347,-0.660,-0.525
11.350,-0.660,-0.525
11.353,-0.665,-0.540
11.356,-0.685,-0.550
11.358,-0.685,-0.555
11.361,-0.670,-0.545
11.364,-0.670,-0.540
11.367,-0.680,-0.535
11.369,-0.680,-0.515
11.372,-0.680,-0.505
11.375,-0.680,-0.500
11.378,-0.680,-0.500
11.381,-0.685,-0.520
11.383,-0.690,-0.515
11.386,-0.685,-0.540
11.389,-0.695,-0.545
11.392,-0.700,-0.545
11.394,-0.695,-0.550
11.397,-0.680,-0.540
11.400,-0.670,-0.550
11.403,-0.670,-0.545
11.406,-0.640,-0.540
11.408,-0.640,-0.530
11.411,-0.625,-0.535
11.414,-0.620,-0.540
11.417,-0.615,-0.545
11.419,-0.625,-0.550
11.422,-0.640,-0.560
11.425,-0.635,-0.565
11.428,-0.650,-0.565
11.431,-0.645,-0.560
11.433,-0.645,-0.545
11.436,-0.635,-0.555
11.439,-0.640,-0.555
11.442,-0.645,-0.555
11.444,-0.640,-0.560
11.447,-0.645,-0.560
11.450,-0.655,-0.570
11.453,-0.665,-0.580
11.456,-0.680,-0.575
11.458,-0.700,-0.595
11.461,-0.680,-0.585
11.464,-0.690,-0.575
11.467,-0.700,-0.570
11.469,-0.685,-0.565
11.472,-0.680,-0.555
11.475,-0.675,-0.550
11.478,-0.645,-0.550
11.481,-0.640,-0.545
11.483,-0.645,-0.545
11.486,-0.650,-0.550
11.489,-0.650,-0.565
11.492,-0.660,-0.565
11.494,-0.665,-0.550
11.497,-0.665,-0.540
11.500,-0.670,-0.540
11.503,-0.660,-0.525
11.506,-0.660,-0.515
11.508,-0.650,-0.510
11.511,-0.645,-0.505
11.514,-0.660,-0.490
11.517,-0.665,-0.500
11.519,-0.665,-0.495
11.522,-0.665,-0.490
11.525,-0.660,-0.505
11.528,-0.655,-0.495
11.531,-0.660,-0.495
11.533,-0.680,-0.495
11.536,-0.675,-0.485
11.539,-0.675,-0.485
11.542,-0.675,-0.475
11.544,-0.675,-0.500
11.547,-0.670,-0.495
11.550,-0.660,-0.510
11.553,-0.675,-0.515
11.556,-0.660,-0.520
11.558,-0.665,-0.525
11.561,-0.665,-0.505
11.564,-0.650,-0.500
11.567,-0.635,-0.500
11.569,-0.635,-0.500
11.572,-0.645,-0.490
11.575,-0.630,-0.495
11.578,-0.625,-0.510
11.581,-0.630,-0.515
11.583,-0.625,-0.515
11.586,-0.625,-0.525
11.589,-0.635,-0.540
11.592,-0.645,-0.540
11.594,-0.650,-0.525
11.597,-0.645,-0.530
11.600,-0.630,-0.525
11.603,-0.625,-0.525
11.606,-0.605,-0.520
11.608,-0.605,-0.515
11.611,-0.600,-0.535
11.614,-0.605,-0.550
11.617,-0.620,-0.540
11.619,-0.645,-0.550
11.622,-0.650,-0.560
11.625,-0.655,-0.555
11.628,-0.670,-0.575
11.631,-0.675,-0.570
11.633,-0.670,-0.570
11.636,-0.670,-0.560
11.639,-0.665,-0.565
11.642,-0.665,-0.570
11.644,-0.675,-0.580
11.647,-0.670,-0.585
11.650,-0.675,-0.595
11.653,-0.685,-0.610
11.656,-0.680,-0.605
11.658,-0.690,-0.605
11.661,-0.680,-0.595
11.664,-0.670,-0.585
11.667,-0.665,-0.565
11.669,-0.655,-0.570
11.672,-0.640,-0.565
11.675,-0.625,-0.555
11.678,-0.620,-0.565
11.681,-0.625,-0.565
11.683,-0.610,-0.560
11.686,-0.620,-0.575
11.689,-0.615,-0.570
11.692,-0.625,-0.575
11.694,-0.640,-0.565
11.697,-0.640,-0.555
11.700,-0.635,-0.550
11.703,-0.635,-0.550
11.706,-0.635,-0.535
11.708,-0.635,-0.530
11.711,-0.625,-0.525
11.714,-0.635,-0.535
11.717,-0.635,-0.550
11.719,-0.620,-0.545
11.722,-0.625,-0.550
11.725,-0.615,-0.530
11.728,-0.620,-0.525
11.731,-0.620,-0.535
11.733,-0.620,-0.505
11.736,-0.610,-0.500
11.739,-0.605,-0.505
11.742,-0.585,-0.505
11.744,-0.585,-0.505
11.747,-0.590,-0.515
11.750,-0.595,-0.515
11.753,-0.615,-0.520
11.756,-0.605,-0.525
11.758,-0.615,-0.530
11.761,-0.610,-0.525
11.764,-0.605,-0.535
11.767,-0.605,-0.525
11.769,-0.595,-0.525
11.772,-0.580,-0.510
11.775,-0.590,-0.510
11.778,-0.570,-0.510
11.781,-0.575,-0.520
11.783,-0.575,-0.520
11.786,-0.580,-0.530
11.789,-0.595,-0.545
11.792,-0.610,-0.545
11.794,-0.615,-0.535
11.797,-0.630,-0.540
11.800,-0.620,-0.535
11.803,-0.630,-0.535
11.806,-0.620,-0.525
11.808,-0.620,-0.525
11.811,-0.610,-0.530
11.814,-0.625,-0.540
11.817,-0.630,-0.540
11.819,-0.640,-0.535
11.822,-0.645,-0.550
11.825,-0.650,-0.555
11.828,-0.655,-0.540
11.831,-0.660,-0.540
11.833,-0.650,-0.535
11.836,-0.635,-0.515
11.839,-0.635,-0.515
11.842,-0.640,-0.520
11.844,-0.655,-0.525
11.847,-0.685,-0.530
11.850,-0.705,-0.530
11.853,-0.685,-0.530
11.856,-0.590,-0.485
11.858,-0.450,-0.430
11.861,-0.240,-0.330
11.864,0.030,-0.210
11.867,0.370,-0.085
11.869,0.740,0.020
11.872,1.095,0.140
11.875,1.390,0.235
11.878,1.615,0.320
11.881,1.725,0.420
11.883,1.740,0.515
11.886,1.665,0.585
11.889,1.550,0.570
11.892,1.280,0.370
11.894,0.870,-0.005
11.897,0.325,-0.500
11.900,-0.210,-1.035
11.903,-0.595,-1.480
11.906,-0.790,-1.725
11.908,-0.825,-1.710
11.911,-0.785,-1.545
11.914,-0.700,-1.325
11.917,-0.615,-1.115
11.919,-0.590,-0.960
11.922,-0.600,-0.875
11.925,-0.630,-0.830
11.928,-0.665,-0.790
11.931,-0.715,-0.745
11.933,-0.720,-0.715
11.936,-0.730,-0.665
11.939,-0.740,-0.630
11.942,-0.730,-0.600
11.944,-0.715,-0.575
11.947,-0.740,-0.570
11.950,-0.735,-0.570
11.953,-0.775,-0.565
11.956,-0.795,-0.575
11.958,-0.810,-0.575
11.961,-0.835,-0.575
11.964,-0.845,-0.570
11.967,-0.835,-0.565
11.969,-0.835,-0.540
11.972,-0.835,-0.530
11.975,-0.835,-0.535
11.978,-0.820,-0.535
11.981,-0.830,-0.530
11.983,-0.840,-0.545
11.986,-0.840,-0.540
11.989,-0.845,-0.555
11.992,-0.865,-0.560
11.994,-0.875,-0.555
11.997,-0.880,-0.545
12.000,-0.880,-0.545
12.003,-0.875,-0.540
12.006,-0.885,-0.535
12.008,-0.895,-0.530
12.011,-0.890,-0.535
12.014,-0.900,-0.535
12.017,-0.900,-0.545
12.019,-0.895,-0.555
12.022,-0.910,-0.565
12.025,-0.910,-0.565
12.028,-0.905,-0.565
12.031,-0.905,-0.570
12.033,-0.910,-0.565
12.036,-0.895,-0.555
12.039,-0.900,-0.555
12.042,-0.910,-0.570
12.044,-0.910,-0.570
12.047,-0.930,-0.580
12.050,-0.935,-0.590
12.053,-0.950,-0.600
12.056,-0.960,-0.615
12.058,-0.965,-0.620
12.061,-0.975,-0.630
12.064,-0.980,-0.625
12.067,-0.975,-0.635
12.069,-0.960,-0.625
12.072,-0.955,-0.620
12.075,-0.945,-0.625
12.078,-0.950,-0.625
12.081,-0.950,-0.630
12.083,-0.965,-0.640
12.086,-0.985,-0.650
12.089,-1.000,-0.675
12.092,-1.020,-0.680
12.094,-1.055,-0.690
12.097,-1.060,-0.695
12.100,-1.080,-0.700
12.103,-1.080,-0.695
12.106,-1.095,-0.705
12.108,-1.100,-0.710
12.111,-1.095,-0.720
12.114,-1.130,-0.745
12.117,-1.135,-0.765
12.119,-1.170,-0.775
12.122,-1.185,-0.800
12.125,-1.225,-0.825
12.128,-1.245,-0.835
12.131,-1.270,-0.840
12.133,-1.295,-0.845
12.136,-1.295,-0.850
12.139,-1.310,-0.845
12.142,-1.305,-0.850
12.144,-1.330,-0.890
12.147,-1.350,-0.895
12.150,-1.360,-0.915
12.153,-1.370,-0.950
12.156,-1.385,-0.960
12.158,-1.390,-0.980
12.161,-1.395,-0.990
12.164,-1.385,-1.000
12.167,-1.380,-0.985
12.169,-1.355,-0.985
12.172,-1.335,-0.980
12.175,-1.285,-0.960
12.178,-1.255,-0.965
12.181,-1.210,-0.940
12.183,-1.180,-0.940
12.186,-1.145,-0.930
12.189,-1.115,-0.915
12.192,-1.065,-0.895
12.194,-1.020,-0.870
12.197,-0.990,-0.855
12.200,-0.950,-0.820
12.203,-0.915,-0.800
12.206,-0.900,-0.775
12.208,-0.865,-0.750
12.211,-0.845,-0.735
12.214,-0.825,-0.730
12.217,-0.810,-0.720
12.219,-0.795,-0.705
12.222,-0.775,-0.705
12.225,-0.760,-0.700
12.228,-0.725,-0.680
12.231,-0.710,-0.665
12.233,-0.685,-0.645
12.236,-0.685,-0.625
12.239,-0.665,-0.620
12.242,-0.655,-0.605
12.244,-0.655,-0.600
12.247,-0.665,-0.605
12.250,-0.665,-0.620
12.253,-0.665,-0.615
12.256,-0.645,-0.620
12.258,-0.655,-0.615
12.261,-0.665,-0.605
12.264,-0.670,-0.605
12.267,-0.655,-0.605
12.269,-0.660,-0.600
12.272,-0.640,-0.590
12.275,-0.640,-0.590
12.278,-0.635,-0.595
12.281,-0.635,-0.595
12.283,-0.635,-0.605
12.286,-0.655,-0.610
12.289,-0.655,-0.605
12.292,-0.660,-0.610
12.294,-0.660,-0.615
12.297,-0.665,-0.610
12.300,-0.665,-0.595
12.303,-0.665,-0.580
12.306,-0.650,-0.570
12.308,-0.635,-0.570
12.311,-0.630,-0.570
12.314,-0.640,-0.570
12.317,-0.645,-0.565
12.319,-0.650,-0.570
12.322,-0.655,-0.565
12.325,-0.655,-0.565
12.328,-0.660,-0.565
12.331,-0.675,-0.560
12.333,-0.660,-0.550
12.336,-0.650,-0.530
12.339,-0.645,-0.525
12.342,-0.640,-0.520
12.344,-0.645,-0.520
12.347,-0.640,-0.515
12.350,-0.640,-0.520
12.353,-0.650,-0.525
12.356,-0.640,-0.535
12.358,-0.650,-0.525
12.361,-0.650,-0.525
12.364,-0.640,-0.525
12.367,-0.635,-0.515
12.369,-0.620,-0.510
12.372,-0.605,-0.505
12.375,-0.590,-0.500
12.378,-0.570,-0.495
12.381,-0.590,-0.510
12.383,-0.580,-0.520
12.386,-0.595,-0.520
12.389,-0.595,-0.525
12.392,-0.605,-0.520
12.394,-0.600,-0.530
12.397,-0.595,-0.525
12.400,-0.605,-0.520
12.403,-0.605,-0.515
12.406,-0.595,-0.515
12.408,-0.580,-0.505
12.411,-0.580,-0.510
12.414,-0.590,-0.510
12.417,-0.585,-0.530
12.419,-0.590,-0.525
12.422,-0.595,-0.530
12.425,-0.600,-0.535
12.428,-0.615,-0.540
12.431,-0.620,-0.540
12.433,-0.620,-0.530
12.436,-0.615,-0.540
12.439,-0.615,-0.530
12.442,-0.615,-0.530
12.444,-0.605,-0.530
12.447,-0.595,-0.530
12.450,-0.600,-0.545
12.453,-0.605,-0.545
12.456,-0.615,-0.560
12.458,-0.605,-0.565
12.461,-0.620,-0.570
12.464,-0.620,-0.570
12.467,-0.610,-0.560
12.469,-0.605,-0.550
12.472,-0.605,-0.555
12.475,-0.585,-0.555
12.478,-0.585,-0.545
12.481,-0.580,-0.550
12.483,-0.590,-0.560
12.486,-0.600,-0.565
12.489,-0.605,-0.580
12.492,-0.610,-0.580
12.494,-0.610,-0.585
12.497,-0.615,-0.585
12.500,-0.615,-0.590
12.503,-0.610,-0.585
12.506,-0.620,-0.585
12.508,-0.625,-0.595
12.511,-0.630,-0.600
12.514,-0.635,-0.610
12.517,-0.640,-0.625
12.519,-0.655,-0.630
12.522,-0.655,-0.640
12.525,-0.660,-0.650
12.528,-0.660,-0.645
12.531,-0.655,-0.640
12.533,-0.650,-0.640
12.536,-0.635,-0.625
12.539,-0.630,-0.620
12.542,-0.625,-0.610
12.544,-0.615,-0.615
12.547,-0.625,-0.615
12.550,-0.620,-0.630
12.553,-0.625,-0.625
12.556,-0.630,-0.640
12.558,-0.635,-0.640
12.561,-0.640,-0.630
12.564,-0.630,-0.605
12.567,-0.640,-0.615
12.569,-0.635,-0.595
12.572,-0.635,-0.585
12.575,-0.625,-0.585
12.578,-0.625,-0.585
12.581,-0.625,-0.585
12.583,-0.625,-0.595
12.586,-0.640,-0.600
12.589,-0.640,-0.600
12.592,-0.645,-0.620
12.594,-0.650,-0.610
12.597,-0.640,-0.610
12.600,-0.630,-0.600
12.603,-0.630,-0.585
12.606,-0.625,-0.590
12.608,-0.620,-0.580
12.611,-0.620,-0.580
12.614,-0.635,-0.595
12.617,-0.630,-0.585
12.619,-0.620,-0.610
12.622,-0.630,-0.605
12.625,-0.630,-0.610
12.628,-0.640,-0.620
12.631,-0.625,-0.595
12.633,-0.620,-0.595
12.636,-0.610,-0.580
12.639,-0.610,-0.585
12.642,-0.605,-0.570
12.644,-0.595,-0.575
12.647,-0.600,-0.585
12.650,-0.605,-0.580
12.653,-0.605,-0.590
12.656,-0.630,-0.590
12.658,-0.630,-0.595
12.661,-0.610,-0.590
12.664,-0.620,-0.580
12.667,-0.610,-0.560
12.669,-0.605,-0.540
12.672,-0.605,-0.540
12.675,-0.595,-0.530
12.678,-0.625,-0.535
12.681,-0.635,-0.550
12.683,-0.665,-0.555
12.686,-0.695,-0.565
12.689,-0.690,-0.560
12.692,-0.630,-0.540
12.694,-0.520,-0.495
12.697,-0.355,-0.425
12.700,-0.145,-0.320
12.703,0.115,-0.215
12.706,0.400,-0.125
12.708,0.710,-0.040
12.711,1.020,0.035
12.714,1.310,0.115
12.717,1.545,0.180
12.719,1.705,0.270
12.722,1.765,0.375
12.725,1.750,0.465
12.728,1.665,0.520
12.731,1.495,0.450
12.733,1.220,0.245
12.736,0.775,-0.120
12.739,0.245,-0.580
12.742,-0.270,-1.050
12.744,-0.645,-1.455
12.747,-0.825,-1.675
12.750,-0.855,-1.715
12.753,-0.815,-1.575
12.756,-0.740,-1.375
12.758,-0.680,-1.175
12.761,-0.640,-1.025
12.764,-0.640,-0.920
12.767,-0.665,-0.875
12.769,-0.685,-0.815
12.772,-0.710,-0.775
12.775,-0.725,-0.755
12.778,-0.715,-0.725
12.781,-0.715,-0.700
12.783,-0.720,-0.680
12.786,-0.720,-0.665
12.789,-0.740,-0.650
12.792,-0.750,-0.650
12.794,-0.760,-0.640
12.797,-0.770,-0.640
12.800,-0.785,-0.630
12.803,-0.785,-0.625
12.806,-0.785,-0.625
12.808,-0.790,-0.610
12.811,-0.790,-0.605
12.814,-0.805,-0.605
12.817,-0.805,-0.625
12.819,-0.825,-0.625
12.822,-0.815,-0.630
12.825,-0.835,-0.640
12.828,-0.840,-0.640
12.831,-0.835,-0.620
12.833,-0.835,-0.610
12.836,-0.820,-0.600
12.839,-0.820,-0.605
12.842,-0.815,-0.595
12.844,-0.805,-0.580
12.847,-0.810,-0.595
12.850,-0.820,-0.595
12.853,-0.830,-0.600
12.856,-0.835,-0.615
12.858,-0.850,-0.610
12.861,-0.850,-0.610
12.864,-0.865,-0.605
12.867,-0.865,-0.605
12.869,-0.860,-0.605
12.872,-0.850,-0.600
12.875,-0.845,-0.600
12.878,-0.850,-0.590
12.881,-0.845,-0.605
12.883,-0.835,-0.600
12.886,-0.850,-0.605
12.889,-0.855,-0.610
12.892,-0.860,-0.615
12.894,-0.880,-0.615
12.897,-0.880,-0.610
12.900,-0.875,-0.590
12.903,-0.885,-0.580
12.906,-0.885,-0.565
12.908,-0.895,-0.570
12.911,-0.905,-0.580
12.914,-0.915,-0.595
12.917,-0.915,-0.595
12.919,-0.920,-0.605
12.922,-0.925,-0.610
12.925,-0.930,-0.615
12.928,-0.940,-0.635
12.931,-0.950,-0.620
12.933,-0.945,-0.625
12.936,-0.955,-0.640
12.939,-0.975,-0.630
12.942,-0.985,-0.630
12.944,-1.005,-0.640
12.947,-1.025,-0.655
12.950,-1.040,-0.670
12.953,-1.065,-0.700
12.956,-1.085,-0.720
12.958,-1.105,-0.740
12.961,-1.125,-0.745
12.964,-1.135,-0.755
12.967,-1.155,-0.770
12.969,-1.160,-0.780
12.972,-1.165,-0.790
12.975,-1.185,-0.810
12.978,-1.195,-0.830
12.981,-1.210,-0.835
12.983,-1.235,-0.860
12.986,-1.250,-0.890
12.989,-1.270,-0.915
12.992,-1.280,-0.935
12.994,-1.275,-0.940
12.997,-1.270,-0.945
13.000,-1.265,-0.955
13.003,-1.255,-0.945
13.006,-1.230,-0.955
13.008,-1.195,-0.945
13.011,-1.175,-0.950
13.014,-1.145,-0.945
13.017,-1.120,-0.940
13.019,-1.090,-0.940
13.022,-1.075,-0.935
13.025,-1.040,-0.920
13.028,-1.025,-0.895
13.031,-0.980,-0.880
13.033,-0.950,-0.860
13.036,-0.905,-0.825
13.039,-0.865,-0.800
13.042,-0.840,-0.780
13.044,-0.815,-0.750
13.047,-0.790,-0.755
13.050,-0.785,-0.750
13.053,-0.770,-0.730
13.056,-0.770,-0.730
13.058,-0.770,-0.720
13.061,-0.760,-0.710
13.064,-0.745,-0.695
13.067,-0.740,-0.690
13.069,-0.720,-0.665
13.072,-0.700,-0.640
13.075,-0.685,-0.635
13.078,-0.670,-0.630
13.081,-0.675,-0.635
13.083,-0.650,-0.625
13.086,-0.645,-0.630
13.089,-0.645,-0.625
13.092,-0.655,-0.630
13.094,-0.650,-0.635
13.097,-0.660,-0.620
13.100,-0.655,-0.615
13.103,-0.660,-0.610
13.106,-0.640,-0.610
13.108,-0.635,-0.605
13.111,-0.630,-0.595
13.114,-0.635,-0.605
13.117,-0.635,-0.610
13.119,-0.640,-0.610
13.122,-0.655,-0.615
13.125,-0.660,-0.605
13.128,-0.670,-0.605
13.131,-0.665,-0.600
13.133,-0.665,-0.590
13.136,-0.645,-0.595
13.139,-0.640,-0.570
13.142,-0.630,-0.575
13.144,-0.620,-0.575
13.147,-0.615,-0.570
13.150,-0.625,-0.580
13.153,-0.625,-0.590
13.156,-0.630,-0.575
13.158,-0.630,-0.590
13.161,-0.630,-0.585
13.164,-0.640,-0.580
13.167,-0.635,-0.580
13.169,-0.615,-0.570
13.172,-0.605,-0.560
13.175,-0.605,-0.550
13.178,-0.590,-0.550
13.181,-0.590,-0.555
13.183,-0.590,-0.555
13.186,-0.580,-0.555
13.189,-0.585,-0.565
13.192,-0.590,-0.555
13.194,-0.585,-0.560
13.197,-0.595,-0.560
13.200,-0.610,-0.565
13.203,-0.620,-0.545
13.206,-0.615,-0.555
13.208,-0.620,-0.560
13.211,-0.620,-0.560
13.214,-0.625,-0.575
13.217,-0.630,-0.580
13.219,-0.645,-0.595
13.222,-0.635,-0.605
13.225,-0.635,-0.615
13.228,-0.640,-0.615
13.231,-0.635,-0.615
13.233,-0.625,-0.615
13.236,-0.630,-0.605
13.239,-0.615,-0.595
13.242,-0.605,-0.585
13.244,-0.605,-0.595
13.247,-0.600,-0.590
13.250,-0.610,-0.595
13.253,-0.610,-0.605
13.256,-0.610,-0.600
13.258,-0.625,-0.605
13.261,-0.630,-0.600
13.264,-0.630,-0.580
13.267,-0.620,-0.580
13.269,-0.615,-0.565
13.272,-0.610,-0.560
13.275,-0.610,-0.550
13.278,-0.615,-0.545
13.281,-0.605,-0.555
13.283,-0.620,-0.555
13.286,-0.620,-0.550
13.289,-0.620,-0.565
13.292,-0.630,-0.570
13.294,-0.630,-0.560
13.297,-0.630,-0.545
13.300,-0.635,-0.540
13.303,-0.625,-0.535
13.306,-0.620,-0.530
13.308,-0.610,-0.525
13.311,-0.615,-0.530
13.314,-0.620,-0.545
13.317,-0.615,-0.540
13.319,-0.625,-0.555
13.322,-0.620,-0.555
13.325,-0.635,-0.560
13.328,-0.640,-0.560
13.331,-0.640,-0.570
13.333,-0.640,-0.560
13.336,-0.635,-0.555
13.339,-0.640,-0.550
13.342,-0.615,-0.540
13.344,-0.610,-0.545
13.347,-0.605,-0.545
13.350,-0.615,-0.545
13.353,-0.630,-0.565
13.356,-0.635,-0.570
13.358,-0.630,-0.580
13.361,-0.635,-0.575
13.364,-0.630,-0.575
13.367,-0.640,-0.570
13.369,-0.630,-0.575
13.372,-0.615,-0.565
13.375,-0.615,-0.555
13.378,-0.620,-0.560
13.381,-0.630,-0.575
13.383,-0.655,-0.590
13.386,-0.655,-0.590
13.389,-0.655,-0.605
13.392,-0.650,-0.605
13.394,-0.660,-0.600
13.397,-0.630,-0.605
13.400,-0.615,-0.610
13.403,-0.615,-0.600
13.406,-0.610,-0.590
13.408,-0.605,-0.580
13.411,-0.605,-0.585
13.414,-0.610,-0.590
13.417,-0.605,-0.585
13.419,-0.600,-0.590
13.422,-0.605,-0.590
13.425,-0.590,-0.580
13.428,-0.605,-0.585
13.431,-0.605,-0.580
13.433,-0.605,-0.585
13.436,-0.615,-0.570
13.439,-0.620,-0.565
13.442,-0.605,-0.570
13.444,-0.615,-0.565
13.447,-0.620,-0.580
13.450,-0.610,-0.595
13.453,-0.615,-0.600
13.456,-0.620,-0.610
13.458,-0.630,-0.605
13.461,-0.640,-0.615
13.464,-0.635,-0.605
13.467,-0.635,-0.595
13.469,-0.640,-0.590
13.472,-0.630,-0.585
13.475,-0.615,-0.570
13.478,-0.605,-0.580
13.481,-0.615,-0.575
13.483,-0.615,-0.585
13.486,-0.620,-0.590
13.489,-0.635,-0.590
13.492,-0.640,-0.605
13.494,-0.635,-0.600
13.497,-0.650,-0.610
13.500,-0.635,-0.590
13.503,-0.625,-0.590
13.506,-0.615,-0.585
13.508,-0.605,-0.580
13.511,-0.595,-0.590
13.514,-0.595,-0.595
13.517,-0.600,-0.595
13.519,-0.610,-0.600
13.522,-0.610,-0.615
13.525,-0.625,-0.605
13.528,-0.640,-0.600
13.531,-0.635,-0.600
13.533,-0.635,-0.595
13.536,-0.630,-0.600
13.539,-0.635,-0.600
13.542,-0.635,-0.590
13.544,-0.640,-0.600
13.547,-0.650,-0.600
13.550,-0.635,-0.620
13.553,-0.640,-0.615
13.556,-0.640,-0.630
13.558,-0.640,-0.645
13.561,-0.625,-0.650
13.564,-0.625,-0.645
13.567,-0.610,-0.640
13.569,-0.595,-0.630
13.572,-0.585,-0.610
13.575,-0.580,-0.610
13.578,-0.585,-0.600
13.581,-0.590,-0.605
13.583,-0.615,-0.605
13.586,-0.635,-0.605
13.589,-0.610,-0.600
13.592,-0.520,-0.550
13.594,-0.365,-0.480
13.597,-0.160,-0.375
13.600,0.110,-0.270
13.603,0.400,-0.175
13.606,0.710,-0.070
13.608,1.030,0.015
13.611,1.330,0.095
13.614,1.560,0.175
13.617,1.700,0.275
13.619,1.760,0.370
13.622,1.735,0.475
13.625,1.640,0.525
13.628,1.455,0.460
13.631,1.150,0.230
13.633,0.710,-0.115
13.636,0.200,-0.585
13.639,-0.285,-1.040
13.642,-0.625,-1.420
13.644,-0.795,-1.620
13.647,-0.835,-1.625
13.650,-0.785,-1.490
13.653,-0.705,-1.285
13.656,-0.660,-1.095
13.658,-0.630,-0.950
13.661,-0.630,-0.865
13.664,-0.655,-0.805
13.667,-0.685,-0.775
13.669,-0.705,-0.735
13.672,-0.700,-0.725
13.675,-0.710,-0.695
13.678,-0.700,-0.675
13.681,-0.700,-0.630
13.683,-0.705,-0.635
13.686,-0.720,-0.625
13.689,-0.730,-0.635
13.692,-0.760,-0.625
13.694,-0.765,-0.625
13.697,-0.770,-0.620
13.700,-0.785,-0.620
13.703,-0.780,-0.600
13.706,-0.780,-0.590
13.708,-0.800,-0.590
13.711,-0.800,-0.595
13.714,-0.815,-0.600
13.717,-0.820,-0.610
13.719,-0.840,-0.615
13.722,-0.840,-0.625
13.725,-0.855,-0.640
13.728,-0.860,-0.630
13.731,-0.845,-0.640
13.733,-0.845,-0.635
13.736,-0.845,-0.625
13.739,-0.835,-0.625
13.742,-0.820,-0.610
13.744,-0.825,-0.610
13.747,-0.830,-0.610
13.750,-0.820,-0.630
13.753,-0.835,-0.625
13.756,-0.855,-0.630
13.758,-0.865,-0.635
13.761,-0.875,-0.625
13.764,-0.890,-0.625
13.767,-0.890,-0.635
13.769,-0.880,-0.615
13.772,-0.870,-0.615
13.775,-0.860,-0.605
13.778,-0.865,-0.620
13.781,-0.870,-0.625
13.783,-0.875,-0.625
13.786,-0.885,-0.635
13.789,-0.895,-0.640
13.792,-0.905,-0.655
13.794,-0.920,-0.650
13.797,-0.920,-0.650
13.800,-0.925,-0.660
13.803,-0.915,-0.635
13.806,-0.920,-0.635
13.808,-0.915,-0.610
13.811,-0.925,-0.610
13.814,-0.940,-0.620
13.817,-0.955,-0.640
13.819,-0.985,-0.635
13.822,-0.990,-0.645
13.825,-1.015,-0.655
13.828,-1.035,-0.665
13.831,-1.030,-0.660
13.833,-1.040,-0.665
13.836,-1.050,-0.660
13.839,-1.060,-0.685
13.842,-1.070,-0.680
13.844,-1.070,-0.695
13.847,-1.095,-0.715
13.850,-1.105,-0.735
13.853,-1.115,-0.745
13.856,-1.150,-0.760
13.858,-1.160,-0.790
13.861,-1.180,-0.790
13.864,-1.190,-0.800
13.867,-1.210,-0.825
13.869,-1.225,-0.835
13.872,-1.250,-0.845
13.875,-1.260,-0.860
13.878,-1.250,-0.885
13.881,-1.265,-0.895
13.883,-1.265,-0.920
13.886,-1.270,-0.935
13.889,-1.270,-0.960
13.892,-1.280,-0.975
13.894,-1.280,-0.985
13.897,-1.265,-0.980
13.900,-1.230,-0.975
13.903,-1.205,-0.955
13.906,-1.180,-0.955
13.908,-1.150,-0.940
13.911,-1.115,-0.945
13.914,-1.085,-0.920
13.917,-1.060,-0.920
13.919,-1.020,-0.900
13.922,-0.995,-0.890
13.925,-0.970,-0.875
13.928,-0.935,-0.850
13.931,-0.915,-0.825
13.933,-0.870,-0.795
13.936,-0.840,-0.770
13.939,-0.820,-0.745
13.942,-0.785,-0.710
13.944,-0.750,-0.700
13.947,-0.725,-0.695
13.950,-0.715,-0.675
13.953,-0.705,-0.670
13.956,-0.710,-0.665
13.958,-0.715,-0.665
13.961,-0.705,-0.650
13.964,-0.700,-0.635
13.967,-0.685,-0.630
13.969,-0.670,-0.600
13.972,-0.670,-0.590
13.975,-0.660,-0.575
13.978,-0.645,-0.565
13.981,-0.645,-0.580
13.983,-0.635,-0.580
13.986,-0.650,-0.580
13.989,-0.660,-0.585
13.992,-0.660,-0.600
13.994,-0.660,-0.590
13.997,-0.665,-0.585
14.000,-0.660,-0.585
14.003,-0.655,-0.575
14.006,-0.645,-0.560
14.008,-0.630,-0.555
14.011,-0.635,-0.550
14.014,-0.630,-0.555
14.017,-0.625,-0.560
14.019,-0.635,-0.560
14.022,-0.645,-0.565
14.025,-0.635,-0.575
14.028,-0.645,-0.575
14.031,-0.645,-0.565
14.033,-0.645,-0.555
14.036,-0.645,-0.555
14.039,-0.625,-0.545
14.042,-0.615,-0.540
14.044,-0.605,-0.540
14.047,-0.595,-0.530
14.050,-0.585,-0.540
14.053,-0.575,-0.540
14.056,-0.570,-0.550
14.058,-0.565,-0.555
14.061,-0.570,-0.560
14.064,-0.560,-0.560
14.067,-0.560,-0.555
14.069,-0.560,-0.560
14.072,-0.560,-0.540
14.075,-0.555,-0.520
14.078,-0.545,-0.525
14.081,-0.550,-0.530
14.083,-0.545,-0.515
14.086,-0.545,-0.520
14.089,-0.545,-0.520
14.092,-0.545,-0.530
14.094,-0.550,-0.540
14.097,-0.555,-0.515
14.100,-0.545,-0.510
14.103,-0.545,-0.495
14.106,-0.535,-0.485
14.108,-0.530,-0.485
14.111,-0.520,-0.475
14.114,-0.530,-0.480
14.117,-0.535,-0.490
14.119,-0.545,-0.485
14.122,-0.535,-0.505
14.125,-0.540,-0.510
14.128,-0.535,-0.515
14.131,-0.565,-0.505
14.133,-0.555,-0.495
14.136,-0.550,-0.485
14.139,-0.540,-0.470
14.142,-0.535,-0.460
14.144,-0.530,-0.465
14.147,-0.535,-0.485
14.150,-0.545,-0.480
14.153,-0.545,-0.485
14.156,-0.555,-0.505
14.158,-0.565,-0.495
14.161,-0.585,-0.515
14.164,-0.610,-0.505
14.167,-0.625,-0.495
14.169,-0.620,-0.495
14.172,-0.625,-0.500
14.175,-0.620,-0.490
14.178,-0.610,-0.515
14.181,-0.605,-0.515
14.183,-0.605,-0.530
14.186,-0.600,-0.535
14.189,-0.605,-0.530
14.192,-0.615,-0.535
14.194,-0.610,-0.540
14.197,-0.610,-0.530
14.200,-0.600,-0.530
14.203,-0.600,-0.535
14.206,-0.595,-0.540
14.208,-0.570,-0.525
14.211,-0.560,-0.545
14.214,-0.545,-0.550
14.217,-0.545,-0.550
14.219,-0.545,-0.540
14.222,-0.545,-0.550
14.225,-0.555,-0.550
14.228,-0.565,-0.550
14.231,-0.570,-0.545
14.233,-0.580,-0.550
14.236,-0.580,-0.555
14.239,-0.595,-0.550
14.242,-0.580,-0.550
14.244,-0.575,-0.535
14.247,-0.580,-0.535
14.250,-0.565,-0.535
14.253,-0.570,-0.530
14.256,-0.570,-0.545
14.258,-0.580,-0.565
14.261,-0.585,-0.550
14.264,-0.580,-0.545
14.267,-0.590,-0.555
14.269,-0.570,-0.530
14.272,-0.580,-0.535
14.275,-0.585,-0.530
14.278,-0.575,-0.535
14.281,-0.580,-0.540
14.283,-0.575,-0.550
14.286,-0.590,-0.540
14.289,-0.590,-0.555
14.292,-0.600,-0.565
14.294,-0.610,-0.570
14.297,-0.600,-0.570
14.300,-0.600,-0.560
14.303,-0.595,-0.560
14.306,-0.590,-0.560
14.308,-0.585,-0.545
14.311,-0.580,-0.540
14.314,-0.585,-0.535
14.317,-0.600,-0.550
14.319,-0.625,-0.550
14.322,-0.625,-0.570
14.325,-0.630,-0.575
14.328,-0.650,-0.565
14.331,-0.650,-0.565
14.333,-0.645,-0.570
14.336,-0.645,-0.555
14.339,-0.650,-0.555
14.342,-0.635,-0.540
14.344,-0.610,-0.545
14.347,-0.605,-0.545
14.350,-0.585,-0.535
14.353,-0.585,-0.555
14.356,-0.585,-0.540
14.358,-0.580,-0.540
14.361,-0.575,-0.540
14.364,-0.575,-0.530
14.367,-0.565,-0.525
14.369,-0.550,-0.520
14.372,-0.545,-0.515
14.375,-0.530,-0.505
14.378,-0.520,-0.500
14.381,-0.520,-0.505
14.383,-0.515,-0.510
14.386,-0.520,-0.510
14.389,-0.530,-0.530
14.392,-0.540,-0.545
14.394,-0.540,-0.535
14.397,-0.540,-0.530
14.400,-0.510,-0.515
14.403,-0.500,-0.510
14.406,-0.515,-0.495
14.408,-0.495,-0.485
14.411,-0.495,-0.490
14.414,-0.520,-0.485
14.417,-0.525,-0.495
14.419,-0.565,-0.490
14.422,-0.575,-0.495
14.425,-0.585,-0.500
14.428,-0.550,-0.470
14.431,-0.435,-0.410
14.433,-0.255,-0.340
14.436,-0.035,-0.220
14.439,0.230,-0.100
14.442,0.545,0.005
14.444,0.895,0.120
14.447,1.220,0.200
14.450,1.505,0.290
14.453,1.725,0.375
14.456,1.830,0.470
14.458,1.855,0.585
14.461,1.805,0.670
14.464,1.705,0.715
14.467,1.525,0.605
14.469,1.225,0.340
14.472,0.755,-0.065
14.475,0.190,-0.595
14.478,-0.325,-1.110
14.481,-0.685,-1.530
14.483,-0.845,-1.725
14.486,-0.855,-1.695
14.489,-0.785,-1.545
14.492,-0.715,-1.310
14.494,-0.650,-1.115
14.497,-0.620,-0.965
14.500,-0.615,-0.865
14.503,-0.625,-0.790
14.506,-0.665,-0.750
14.508,-0.680,-0.705
14.511,-0.685,-0.680
14.514,-0.690,-0.655
14.517,-0.680,-0.625
14.519,-0.680,-0.610
14.522,-0.680,-0.590
14.525,-0.670,-0.585
14.528,-0.685,-0.570
14.531,-0.690,-0.555
14.533,-0.695,-0.540
14.536,-0.675,-0.530
14.539,-0.655,-0.510
14.542,-0.645,-0.495
14.544,-0.650,-0.495
14.547,-0.645,-0.490
14.550,-0.650,-0.485
14.553,-0.650,-0.490
14.556,-0.660,-0.500
14.558,-0.675,-0.530
14.561,-0.675,-0.525
14.564,-0.690,-0.520
14.567,-0.685,-0.520
14.569,-0.680,-0.505
14.572,-0.690,-0.490
14.575,-0.685,-0.475
14.578,-0.695,-0.480
14.581,-0.715,-0.495
14.583,-0.710,-0.490
14.586,-0.730,-0.495
14.589,-0.745,-0.520
14.592,-0.745,-0.530
14.594,-0.770,-0.530
14.597,-0.765,-0.510
14.600,-0.765,-0.510
14.603,-0.760,-0.505
14.606,-0.765,-0.500
14.608,-0.770,-0.500
14.611,-0.775,-0.500
14.614,-0.780,-0.515
14.617,-0.795,-0.520
14.619,-0.810,-0.520
14.622,-0.815,-0.535
14.625,-0.845,-0.535
14.628,-0.860,-0.535
14.631,-0.860,-0.530
14.633,-0.865,-0.540
14.636,-0.880,-0.540
14.639,-0.875,-0.520
14.642,-0.885,-0.530
14.644,-0.900,-0.525
14.647,-0.915,-0.535
14.650,-0.920,-0.550
14.653,-0.925,-0.570
14.656,-0.940,-0.575
14.658,-0.955,-0.590
14.661,-0.960,-0.595
14.664,-0.965,-0.585
14.667,-0.960,-0.565
14.669,-0.950,-0.575
14.672,-0.950,-0.565
14.675,-0.945,-0.580
14.678,-0.965,-0.605
14.681,-0.955,-0.620
14.683,-0.955,-0.625
14.686,-0.980,-0.645
14.689,-1.000,-0.665
14.692,-1.020,-0.685
14.694,-1.050,-0.680
14.697,-1.075,-0.715
14.700,-1.075,-0.730
14.703,-1.095,-0.725
14.706,-1.090,-0.745
14.708,-1.085,-0.755
14.711,-1.095,-0.775
14.714,-1.100,-0.790
14.717,-1.120,-0.810
14.719,-1.140,-0.825
14.722,-1.160,-0.850
14.725,-1.170,-0.865
14.728,-1.170,-0.885
14.731,-1.185,-0.890
14.733,-1.185,-0.895
14.736,-1.175,-0.900
14.739,-1.175,-0.905
14.742,-1.140,-0.890
14.744,-1.125,-0.900
14.747,-1.085,-0.890
14.750,-1.060,-0.900
14.753,-1.030,-0.895
14.756,-1.000,-0.880
14.758,-0.965,-0.865
14.761,-0.940,-0.845
14.764,-0.895,-0.815
14.767,-0.870,-0.780
14.769,-0.840,-0.745
14.772,-0.790,-0.730
14.775,-0.765,-0.700
14.778,-0.730,-0.680
14.781,-0.725,-0.670
14.783,-0.695,-0.655
14.786,-0.695,-0.655
14.789,-0.685,-0.630
14.792,-0.675,-0.625
14.794,-0.665,-0.620
14.797,-0.675,-0.610
14.800,-0.665,-0.590
14.803,-0.640,-0.570
14.806,-0.625,-0.560
14.808,-0.615,-0.550
14.811,-0.610,-0.535
14.814,-0.620,-0.530
14.817,-0.605,-0.530
14.819,-0.595,-0.545
14.822,-0.595,-0.540
14.825,-0.595,-0.545
14.828,-0.615,-0.550
14.831,-0.615,-0.530
14.833,-0.605,-0.525
14.836,-0.595,-0.525
14.839,-0.585,-0.520
14.842,-0.580,-0.510
14.844,-0.570,-0.505
14.847,-0.560,-0.515
14.850,-0.550,-0.515
14.853,-0.545,-0.525
14.856,-0.555,-0.525
14.858,-0.560,-0.530
14.861,-0.555,-0.535
14.864,-0.560,-0.520
14.867,-0.575,-0.520
14.869,-0.565,-0.500
14.872,-0.570,-0.500
14.875,-0.555,-0.500
14.878,-0.550,-0.505
14.881,-0.545,-0.500
14.883,-0.545,-0.510
14.886,-0.545,-0.515
14.889,-0.555,-0.525
14.892,-0.565,-0.525
14.894,-0.575,-0.520
14.897,-0.565,-0.525
14.900,-0.560,-0.530
14.903,-0.560,-0.525
14.906,-0.550,-0.505
14.908,-0.545,-0.505
14.911,-0.545,-0.500
14.914,-0.550,-0.500
14.917,-0.555,-0.495
14.919,-0.565,-0.495
14.922,-0.550,-0.495
14.925,-0.565,-0.500
14.928,-0.570,-0.505
14.931,-0.570,-0.480
14.933,-0.560,-0.495
14.936,-0.550,-0.475
14.939,-0.540,-0.470
14.942,-0.545,-0.450
14.944,-0.540,-0.455
14.947,-0.550,-0.470
14.950,-0.565,-0.450
14.953,-0.570,-0.470
14.956,-0.565,-0.480
14.958,-0.575,-0.485
14.961,-0.580,-0.490
14.964,-0.565,-0.460
14.967,-0.550,-0.465
14.969,-0.545,-0.450
14.972,-0.515,-0.430
14.975,-0.500,-0.425
14.978,-0.490,-0.410
14.981,-0.480,-0.415
14.983,-0.490,-0.405
14.986,-0.495,-0.420
14.989,-0.490,-0.425
14.992,-0.490,-0.430
14.994,-0.495,-0.435
14.997,-0.490,-0.430
15.000,-0.485,-0.430
15.003,-0.470,-0.410
15.006,-0.480,-0.415
15.008,-0.465,-0.405
15.011,-0.460,-0.405
15.014,-0.465,-0.415
15.017,-0.445,-0.415
15.019,-0.445,-0.425
15.022,-0.460,-0.435
15.025,-0.455,-0.445
15.028,-0.465,-0.440
15.031,-0.470,-0.445
15.033,-0.470,-0.445
15.036,-0.480,-0.435
15.039,-0.465,-0.430
15.042,-0.470,-0.445
15.044,-0.470,-0.430
15.047,-0.475,-0.435
15.050,-0.485,-0.445
15.053,-0.495,-0.460
15.056,-0.500,-0.470
15.058,-0.510,-0.490
15.061,-0.525,-0.495
15.064,-0.535,-0.495
15.067,-0.515,-0.495
15.069,-0.505,-0.495
15.072,-0.505,-0.490
15.075,-0.495,-0.470
15.078,-0.505,-0.480
15.081,-0.510,-0.485
15.083,-0.520,-0.495
15.086,-0.530,-0.500
15.089,-0.545,-0.515
15.092,-0.540,-0.520
15.094,-0.560,-0.520
15.097,-0.555,-0.510
15.100,-0.555,-0.515
15.103,-0.560,-0.515
15.106,-0.565,-0.520
15.108,-0.575,-0.520
15.111,-0.585,-0.530
15.114,-0.580,-0.540
15.117,-0.575,-0.540
15.119,-0.580,-0.560
15.122,-0.600,-0.570
15.125,-0.595,-0.575
15.128,-0.595,-0.565
15.131,-0.590,-0.565
15.133,-0.570,-0.555
15.136,-0.580,-0.545
15.139,-0.565,-0.535
15.142,-0.560,-0.535
15.144,-0.550,-0.515
15.147,-0.545,-0.520
15.150,-0.545,-0.520
15.153,-0.555,-0.520
15.156,-0.565,-0.525
15.158,-0.555,-0.520
15.161,-0.555,-0.520
15.164,-0.560,-0.500
15.167,-0.550,-0.505
15.169,-0.540,-0.500
15.172,-0.530,-0.480
15.175,-0.520,-0.475
15.178,-0.510,-0.480
15.181,-0.495,-0.480
15.183,-0.500,-0.495
15.186,-0.500,-0.500
15.189,-0.515,-0.505
15.192,-0.505,-0.510
15.194,-0.510,-0.510
15.197,-0.510,-0.510
15.200,-0.505,-0.500
15.203,-0.515,-0.500
15.206,-0.500,-0.495
15.208,-0.495,-0.505
15.211,-0.480,-0.500
15.214,-0.485,-0.525
15.217,-0.490,-0.515
15.219,-0.505,-0.535
15.222,-0.515,-0.540
15.225,-0.530,-0.555
15.228,-0.540,-0.550
15.231,-0.530,-0.540
15.233,-0.530,-0.540
15.236,-0.525,-0.540
15.239,-0.515,-0.535
15.242,-0.500,-0.540
15.244,-0.490,-0.530
15.247,-0.485,-0.545
15.250,-0.490,-0.540
15.253,-0.505,-0.550
15.256,-0.510,-0.560
15.258,-0.520,-0.570
15.261,-0.530,-0.565
15.264,-0.535,-0.560
15.267,-0.540,-0.585
15.269,-0.540,-0.565
15.272,-0.540,-0.570
15.275,-0.550,-0.565
15.278,-0.540,-0.550
15.281,-0.545,-0.585
15.283,-0.550,-0.580
15.286,-0.565,-0.600
15.289,-0.580,-0.595
15.292,-0.590,-0.605
15.294,-0.595,-0.600
15.297,-0.600,-0.595
15.300,-0.595,-0.585
15.303,-0.595,-0.585
15.306,-0.605,-0.570
15.308,-0.580,-0.575
15.311,-0.570,-0.565
15.314,-0.560,-0.580
15.317,-0.555,-0.560
15.319,-0.555,-0.570
15.322,-0.550,-0.580
15.325,-0.540,-0.580
15.328,-0.550,-0.575
15.331,-0.550,-0.555
15.333,-0.550,-0.550
15.336,-0.535,-0.545
15.339,-0.530,-0.530
15.342,-0.525,-0.520
15.344,-0.510,-0.505
15.347,-0.505,-0.520
15.350,-0.515,-0.520
15.353,-0.520,-0.525
15.356,-0.535,-0.535
15.358,-0.530,-0.535
15.361,-0.535,-0.540
15.364,-0.520,-0.540
15.367,-0.510,-0.530
15.369,-0.500,-0.515
15.372,-0.505,-0.505
15.375,-0.490,-0.510
15.378,-0.475,-0.500
15.381,-0.485,-0.510
15.383,-0.480,-0.500
15.386,-0.480,-0.520
15.389,-0.500,-0.525
15.392,-0.490,-0.545
15.394,-0.495,-0.545
15.397,-0.500,-0.540
15.400,-0.495,-0.530
15.403,-0.485,-0.525
15.406,-0.480,-0.530
15.408,-0.470,-0.525
15.411,-0.465,-0.520
15.414,-0.445,-0.535
15.417,-0.455,-0.535
15.419,-0.465,-0.545
15.422,-0.465,-0.545
15.425,-0.460,-0.550
15.428,-0.480,-0.550
15.431,-0.495,-0.555
15.433,-0.520,-0.530
15.436,-0.530,-0.540
15.439,-0.540,-0.530
15.442,-0.540,-0.500
15.444,-0.480,-0.475
15.447,-0.370,-0.430
15.450,-0.205,-0.345
15.453,-0.015,-0.265
15.456,0.230,-0.180
15.458,0.495,-0.095
15.461,0.785,-0.015
15.464,1.075,0.065
15.467,1.365,0.145
15.469,1.600,0.245
15.472,1.750,0.340
15.475,1.825,0.450
15.478,1.825,0.560
15.481,1.765,0.620
15.483,1.610,0.580
15.486,1.360,0.380
15.489,0.965,0.030
15.492,0.440,-0.405
15.494,-0.100,-0.875
15.497,-0.510,-1.290
15.500,-0.750,-1.575
15.503,-0.820,-1.650
15.506,-0.785,-1.555
15.508,-0.695,-1.355
15.511,-0.625,-1.145
15.514,-0.585,-0.995
15.517,-0.565,-0.880
15.519,-0.580,-0.820
15.522,-0.610,-0.790
15.525,-0.640,-0.770
15.528,-0.660,-0.755
15.531,-0.675,-0.715
15.533,-0.680,-0.695
15.536,-0.675,-0.655
15.539,-0.645,-0.645
15.542,-0.630,-0.615
15.544,-0.635,-0.605
15.547,-0.645,-0.605
15.550,-0.655,-0.595
15.553,-0.660,-0.605
15.556,-0.670,-0.620
15.558,-0.690,-0.615
15.561,-0.695,-0.615
15.564,-0.700,-0.605
15.567,-0.695,-0.590
15.569,-0.695,-0.580
15.572,-0.690,-0.580
15.575,-0.685,-0.560
15.578,-0.680,-0.550
15.581,-0.685,-0.555
15.583,-0.680,-0.570
15.586,-0.690,-0.575
15.589,-0.695,-0.580
15.592,-0.690,-0.585
15.594,-0.710,-0.585
15.597,-0.710,-0.585
15.600,-0.720,-0.575
15.603,-0.705,-0.565
15.606,-0.710,-0.550
15.608,-0.690,-0.555
15.611,-0.690,-0.555
15.614,-0.700,-0.565
15.617,-0.700,-0.565
15.619,-0.710,-0.580
15.622,-0.725,-0.575
15.625,-0.725,-0.585
15.628,-0.750,-0.595
15.631,-0.760,-0.590
15.633,-0.765,-0.580
15.636,-0.780,-0.585
15.639,-0.790,-0.580
15.642,-0.805,-0.585
15.644,-0.825,-0.580
15.647,-0.835,-0.600
15.650,-0.870,-0.615
15.653,-0.890,-0.625
15.656,-0.910,-0.640
15.658,-0.920,-0.645
15.661,-0.930,-0.655
15.664,-0.945,-0.660
15.667,-0.940,-0.665
15.669,-0.930,-0.670
15.672,-0.920,-0.655
15.675,-0.930,-0.640
15.678,-0.930,-0.625
15.681,-0.930,-0.625
15.683,-0.930,-0.635
15.686,-0.940,-0.630
15.689,-0.955,-0.640
15.692,-0.970,-0.630
15.694,-0.985,-0.635
15.697,-1.000,-0.640
15.700,-1.010,-0.650
15.703,-1.025,-0.655
15.706,-1.025,-0.660
15.708,-1.035,-0.670
15.711,-1.040,-0.680
15.714,-1.055,-0.695
15.717,-1.070,-0.710
15.719,-1.095,-0.740
15.722,-1.125,-0.760
15.725,-1.140,-0.785
15.728,-1.165,-0.815
15.731,-1.170,-0.820
15.733,-1.190,-0.830
15.736,-1.185,-0.850
15.739,-1.195,-0.860
15.742,-1.190,-0.855
15.744,-1.180,-0.875
15.747,-1.190,-0.900
15.750,-1.190,-0.915
15.753,-1.185,-0.940
15.756,-1.190,-0.945
15.758,-1.190,-0.965
15.761,-1.195,-0.980
15.764,-1.180,-0.970
15.767,-1.170,-0.950
15.769,-1.130,-0.945
15.772,-1.090,-0.935
15.775,-1.035,-0.920
15.778,-0.995,-0.885
15.781,-0.945,-0.890
15.783,-0.910,-0.870
15.786,-0.875,-0.845
15.789,-0.830,-0.845
15.792,-0.805,-0.830
15.794,-0.780,-0.795
15.797,-0.765,-0.785
15.800,-0.755,-0.765
15.803,-0.720,-0.745
15.806,-0.710,-0.735
15.808,-0.695,-0.705
15.811,-0.690,-0.695
15.814,-0.670,-0.700
15.817,-0.665,-0.680
15.819,-0.665,-0.695
15.822,-0.655,-0.680
15.825,-0.660,-0.680
15.828,-0.670,-0.675
15.831,-0.660,-0.685
15.833,-0.650,-0.665
15.836,-0.605,-0.660
15.839,-0.595,-0.640
15.842,-0.585,-0.625
15.844,-0.570,-0.610
15.847,-0.555,-0.610
15.850,-0.555,-0.605
15.853,-0.555,-0.605
15.856,-0.540,-0.615
15.858,-0.560,-0.615
15.861,-0.565,-0.610
15.864,-0.555,-0.600
15.867,-0.550,-0.600
15.869,-0.550,-0.580
15.872,-0.550,-0.575
15.875,-0.535,-0.560
15.878,-0.535,-0.555
15.881,-0.530,-0.565
15.883,-0.540,-0.560
15.886,-0.540,-0.545
15.889,-0.545,-0.555
15.892,-0.555,-0.560
15.894,-0.545,-0.550
15.897,-0.540,-0.540
15.900,-0.525,-0.535
15.903,-0.520,-0.525
15.906,-0.525,-0.520
15.908,-0.500,-0.505
15.911,-0.495,-0.495
15.914,-0.475,-0.505
15.917,-0.490,-0.495
15.919,-0.475,-0.490
15.922,-0.495,-0.495
15.925,-0.510,-0.510
15.928,-0.515,-0.505
15.931,-0.520,-0.505
15.933,-0.530,-0.490
15.936,-0.525,-0.485
15.939,-0.515,-0.485
15.942,-0.505,-0.480
15.944,-0.505,-0.470
15.947,-0.510,-0.475
15.950,-0.500,-0.475
15.953,-0.505,-0.490
15.956,-0.520,-0.495
15.958,-0.520,-0.495
15.961,-0.535,-0.510
15.964,-0.550,-0.510
15.967,-0.560,-0.505
15.969,-0.575,-0.510
15.972,-0.590,-0.510
15.975,-0.595,-0.520
15.978,-0.585,-0.515
15.981,-0.580,-0.535
15.983,-0.570,-0.535
15.986,-0.565,-0.540
15.989,-0.570,-0.550
15.992,-0.575,-0.560
15.994,-0.570,-0.560
15.997,-0.570,-0.565
16.000,-0.555,-0.560
16.003,-0.545,-0.550
16.006,-0.530,-0.550
16.008,-0.510,-0.535
16.011,-0.505,-0.540
16.014,-0.500,-0.530
16.017,-0.490,-0.520
16.019,-0.490,-0.530
16.022,-0.500,-0.540
16.025,-0.505,-0.555
16.028,-0.505,-0.550
16.031,-0.500,-0.545
16.033,-0.495,-0.545
16.036,-0.485,-0.530
16.039,-0.485,-0.530
16.042,-0.470,-0.515
16.044,-0.465,-0.520
16.047,-0.470,-0.525
16.050,-0.470,-0.530
16.053,-0.470,-0.540
16.056,-0.480,-0.555
16.058,-0.480,-0.555
16.061,-0.490,-0.545
16.064,-0.495,-0.550
16.067,-0.485,-0.545
16.069,-0.475,-0.535
16.072,-0.465,-0.530
16.075,-0.450,-0.520
16.078,-0.440,-0.515
16.081,-0.440,-0.515
16.083,-0.440,-0.520
16.086,-0.455,-0.530
16.089,-0.465,-0.535
16.092,-0.490,-0.550
16.094,-0.490,-0.550
16.097,-0.515,-0.540
16.100,-0.520,-0.540
16.103,-0.515,-0.545
16.106,-0.520,-0.535
16.108,-0.515,-0.530
16.111,-0.505,-0.530
16.114,-0.510,-0.550
16.117,-0.515,-0.545
16.119,-0.505,-0.555
16.122,-0.515,-0.555
16.125,-0.530,-0.570
16.128,-0.540,-0.575
16.131,-0.555,-0.560
16.133,-0.555,-0.550
16.136,-0.555,-0.560
16.139,-0.545,-0.535
16.142,-0.540,-0.530
16.144,-0.540,-0.535
16.147,-0.530,-0.535
16.150,-0.530,-0.540
16.153,-0.530,-0.540
16.156,-0.535,-0.550
16.158,-0.545,-0.555
16.161,-0.550,-0.575
16.164,-0.545,-0.555
16.167,-0.545,-0.545
16.169,-0.535,-0.550
16.172,-0.530,-0.530
16.175,-0.525,-0.530
16.178,-0.510,-0.530
16.181,-0.530,-0.535
16.183,-0.520,-0.535
16.186,-0.515,-0.545
16.189,-0.525,-0.550
16.192,-0.530,-0.540
16.194,-0.530,-0.545
16.197,-0.540,-0.530
16.200,-0.555,-0.520
16.203,-0.575,-0.525
16.206,-0.600,-0.520
16.208,-0.595,-0.495
16.211,-0.565,-0.480
16.214,-0.480,-0.445
16.217,-0.325,-0.375
16.219,-0.130,-0.295
16.222,0.105,-0.220
16.225,0.385,-0.135
16.228,0.695,-0.050
16.231,1.020,0.045
16.233,1.335,0.120
16.236,1.595,0.190
16.239,1.785,0.280
16.242,1.870,0.375
16.244,1.890,0.490
16.247,1.845,0.555
16.250,1.725,0.540
16.253,1.525,0.395
16.256,1.200,0.110
16.258,0.735,-0.270
16.261,0.195,-0.725
16.264,-0.275,-1.155
16.267,-0.590,-1.480
16.269,-0.730,-1.625
16.272,-0.720,-1.600
16.275,-0.660,-1.445
16.278,-0.570,-1.230
16.281,-0.520,-1.070
16.283,-0.510,-0.955
16.286,-0.525,-0.880
16.289,-0.555,-0.835
16.292,-0.580,-0.815
16.294,-0.600,-0.800
16.297,-0.625,-0.755
16.300,-0.630,-0.715
16.303,-0.625,-0.695
16.306,-0.630,-0.640
16.308,-0.625,-0.600
16.311,-0.610,-0.595
16.314,-0.600,-0.590
16.317,-0.610,-0.575
16.319,-0.620,-0.585
16.322,-0.625,-0.590
16.325,-0.630,-0.600
16.328,-0.635,-0.600
16.331,-0.645,-0.580
16.333,-0.650,-0.580
16.336,-0.655,-0.575
16.339,-0.650,-0.565
16.342,-0.645,-0.560
16.344,-0.635,-0.545
16.347,-0.630,-0.550
16.350,-0.640,-0.545
16.353,-0.660,-0.555
16.356,-0.675,-0.565
16.358,-0.675,-0.570
16.361,-0.705,-0.570
16.364,-0.715,-0.565
16.367,-0.715,-0.545
16.369,-0.695,-0.555
16.372,-0.700,-0.550
16.375,-0.695,-0.550
16.378,-0.700,-0.540
16.381,-0.705,-0.540
16.383,-0.715,-0.545
16.386,-0.730,-0.555
16.389,-0.750,-0.570
16.392,-0.760,-0.570
16.394,-0.765,-0.580
16.397,-0.785,-0.565
16.400,-0.780,-0.565
16.403,-0.775,-0.565
16.406,-0.765,-0.565
