'Elapsed time','MLII','V1'
'seconds','mV','mV'
0.000,-0.215,0.115
0.004,-0.225,0.095
0.008,-0.230,0.090
0.012,-0.230,0.085
0.016,-0.215,0.095
0.020,-0.200,0.100
0.024,-0.185,0.095
0.028,-0.190,0.105
0.032,-0.190,0.100
0.036,-0.195,0.090
0.040,-0.205,0.080
0.044,-0.210,0.075
0.048,-0.210,0.100
0.052,-0.210,0.105
0.056,-0.195,0.110
0.060,-0.195,0.100
0.064,-0.195,0.075
0.068,-0.205,0.065
0.072,-0.205,0.075
0.076,-0.200,0.080
0.080,-0.205,0.095
0.084,-0.200,0.105
0.088,-0.205,0.095
0.092,-0.210,0.085
0.096,-0.225,0.085
0.100,-0.225,0.080
0.104,-0.220,0.080
0.108,-0.215,0.075
0.112,-0.210,0.095
0.116,-0.205,0.095
0.120,-0.200,0.090
0.124,-0.205,0.085
0.128,-0.215,0.075
0.132,-0.215,0.075
0.136,-0.220,0.065
0.140,-0.225,0.060
0.144,-0.230,0.070
0.148,-0.215,0.085
0.152,-0.210,0.080
0.156,-0.195,0.095
0.160,-0.185,0.080
0.164,-0.190,0.070
0.168,-0.200,0.040
0.172,-0.230,0.045
0.176,-0.220,0.040
0.180,-0.230,0.050
0.184,-0.225,0.080
0.188,-0.205,0.090
0.192,-0.190,0.085
0.196,-0.190,0.065
0.200,-0.195,0.055
0.204,-0.185,0.045
0.208,-0.175,0.060
0.212,-0.165,0.080
0.216,-0.165,0.085
0.220,-0.150,0.100
0.224,-0.130,0.090
0.228,-0.120,0.090
0.232,-0.130,0.080
0.236,-0.135,0.085
0.240,-0.140,0.070
0.244,-0.130,0.055
0.248,-0.110,0.055
0.252,-0.110,0.040
0.256,-0.095,0.030
0.260,-0.110,0.045
0.264,-0.135,0.035
0.268,-0.160,0.015
0.272,-0.185,0.020
0.276,-0.205,0.025
0.280,-0.190,0.020
0.284,-0.175,0.030
0.288,-0.165,0.045
0.292,-0.170,0.065
0.296,-0.180,0.070
0.300,-0.190,0.075
0.304,-0.210,0.060
0.308,-0.220,0.055
0.312,-0.230,0.050
0.316,-0.240,0.065
0.320,-0.225,0.075
0.324,-0.210,0.080
0.328,-0.210,0.085
0.332,-0.210,0.065
0.336,-0.215,0.055
0.340,-0.215,0.045
0.344,-0.220,0.065
0.348,-0.220,0.080
0.352,-0.215,0.095
0.356,-0.210,0.080
0.360,-0.200,0.060
0.364,-0.205,0.060
0.368,-0.210,0.055
0.372,-0.230,0.050
0.376,-0.230,0.065
0.380,-0.240,0.065
0.384,-0.215,0.070
0.388,-0.195,0.075
0.392,-0.180,0.080
0.396,-0.175,0.075
0.400,-0.180,0.085
0.404,-0.205,0.075
0.408,-0.210,0.085
0.412,-0.215,0.085
0.416,-0.175,0.110
0.420,-0.135,0.135
0.424,-0.090,0.145
0.428,-0.035,0.140
0.432,0.055,0.080
0.436,0.180,0.000
0.440,0.340,-0.130
0.444,0.490,-0.255
0.448,0.535,-0.340
0.452,0.375,-0.390
0.456,0.035,-0.375
0.460,-0.300,-0.245
0.464,-0.525,-0.050
0.468,-0.575,0.135
0.472,-0.575,0.280
0.476,-0.505,0.335
0.480,-0.435,0.350
0.484,-0.395,0.370
0.488,-0.400,0.395
0.492,-0.430,0.425
0.496,-0.425,0.440
0.500,-0.420,0.445
0.504,-0.360,0.490
0.508,-0.325,0.530
0.512,-0.325,0.580
0.516,-0.340,0.585
0.520,-0.350,0.600
0.524,-0.335,0.555
0.528,-0.325,0.495
0.532,-0.320,0.410
0.536,-0.305,0.325
0.540,-0.280,0.240
0.544,-0.245,0.155
0.548,-0.210,0.095
0.552,-0.185,0.060
0.556,-0.190,0.045
0.560,-0.205,0.030
0.564,-0.210,0.035
0.568,-0.210,0.030
0.572,-0.195,0.025
0.576,-0.180,0.020
0.580,-0.190,0.030
0.584,-0.195,0.025
0.588,-0.190,0.050
0.592,-0.190,0.055
0.596,-0.190,0.045
0.600,-0.195,0.040
0.604,-0.195,0.030
0.608,-0.190,0.030
0.612,-0.175,0.030
0.616,-0.175,0.040
0.620,-0.180,0.040
0.624,-0.175,0.030
0.628,-0.165,0.020
0.632,-0.180,0.010
0.636,-0.180,0.005
0.640,-0.170,-0.010
0.644,-0.165,-0.005
0.648,-0.165,-0.015
0.652,-0.160,-0.010
0.656,-0.160,0.000
0.660,-0.160,0.000
0.664,-0.155,0.005
0.668,-0.150,-0.015
0.672,-0.140,-0.040
0.676,-0.125,-0.050
0.680,-0.115,-0.060
0.684,-0.095,-0.050
0.688,-0.080,-0.050
0.692,-0.075,-0.045
0.696,-0.065,-0.045
0.700,-0.070,-0.055
0.704,-0.045,-0.095
0.708,-0.030,-0.105
0.712,-0.005,-0.115
0.716,0.020,-0.115
0.720,0.035,-0.120
0.724,0.055,-0.125
0.728,0.070,-0.130
0.732,0.070,-0.150
0.736,0.080,-0.155
0.740,0.085,-0.170
0.744,0.090,-0.165
0.748,0.100,-0.150
0.752,0.110,-0.155
0.756,0.110,-0.160
0.760,0.115,-0.160
0.764,0.120,-0.180
0.768,0.120,-0.155
0.772,0.120,-0.140
0.776,0.115,-0.125
0.780,0.115,-0.110
0.784,0.090,-0.080
0.788,0.070,-0.060
0.792,0.035,-0.060
0.796,0.000,-0.055
0.800,-0.005,-0.050
0.804,-0.030,-0.050
0.808,-0.045,-0.025
0.812,-0.070,-0.005
0.816,-0.075,0.010
0.820,-0.070,0.030
0.824,-0.075,0.020
0.828,-0.095,0.020
0.832,-0.120,0.010
0.836,-0.150,0.000
0.840,-0.170,0.000
0.844,-0.180,0.025
0.848,-0.180,0.040
0.852,-0.180,0.065
0.856,-0.170,0.065
0.860,-0.175,0.055
0.864,-0.180,0.035
0.868,-0.195,0.020
0.872,-0.205,0.030
0.876,-0.210,0.040
0.880,-0.230,0.050
0.884,-0.235,0.060
0.888,-0.235,0.065
0.892,-0.250,0.065
0.896,-0.235,0.035
0.900,-0.240,0.020
0.904,-0.255,-0.010
0.908,-0.255,0.000
0.912,-0.245,0.005
0.916,-0.230,0.030
0.920,-0.220,0.035
0.924,-0.210,0.025
0.928,-0.215,0.020
0.932,-0.215,0.000
0.936,-0.210,0.010
0.940,-0.205,0.015
0.944,-0.200,0.020
0.948,-0.190,0.025
0.952,-0.170,0.030
0.956,-0.165,0.035
0.960,-0.160,0.025
0.964,-0.165,0.010
0.968,-0.175,0.005
0.972,-0.175,-0.005
0.976,-0.175,0.000
0.980,-0.170,0.005
0.984,-0.175,0.015
0.988,-0.170,0.030
0.992,-0.175,0.025
0.996,-0.180,0.030
1.000,-0.180,0.035
1.004,-0.160,0.030
1.008,-0.145,0.035
1.012,-0.150,0.020
1.016,-0.145,0.015
1.020,-0.170,0.030
1.024,-0.165,0.035
1.028,-0.170,0.030
1.032,-0.175,0.040
1.036,-0.185,0.035
1.040,-0.185,0.025
1.044,-0.185,0.035
1.048,-0.185,0.050
1.052,-0.170,0.075
1.056,-0.155,0.085
1.060,-0.155,0.075
1.064,-0.150,0.060
1.068,-0.155,0.040
1.072,-0.180,0.050
1.076,-0.180,0.060
1.080,-0.185,0.070
1.084,-0.185,0.075
1.088,-0.180,0.085
1.092,-0.170,0.085
1.096,-0.160,0.075
1.100,-0.155,0.070
1.104,-0.160,0.050
1.108,-0.165,0.065
1.112,-0.165,0.060
1.116,-0.160,0.070
1.120,-0.155,0.090
1.124,-0.145,0.095
1.128,-0.145,0.100
1.132,-0.135,0.090
1.136,-0.115,0.090
1.140,-0.065,0.095
1.144,0.045,0.100
1.148,0.210,0.060
1.152,0.390,-0.010
1.156,0.590,-0.135
1.160,0.710,-0.245
1.164,0.700,-0.335
1.168,0.435,-0.360
1.172,0.035,-0.315
1.176,-0.310,-0.195
1.180,-0.525,-0.030
1.184,-0.560,0.155
1.188,-0.515,0.270
1.192,-0.455,0.320
1.196,-0.400,0.320
1.200,-0.385,0.320
1.204,-0.395,0.305
1.208,-0.435,0.340
1.212,-0.450,0.380
1.216,-0.415,0.420
1.220,-0.365,0.445
1.224,-0.330,0.460
1.228,-0.310,0.480
1.232,-0.325,0.495
1.236,-0.350,0.505
1.240,-0.370,0.475
1.244,-0.350,0.425
1.248,-0.325,0.380
1.252,-0.290,0.315
1.256,-0.255,0.225
1.260,-0.220,0.135
1.264,-0.200,0.060
1.268,-0.180,0.010
1.272,-0.175,-0.020
1.276,-0.180,-0.020
1.280,-0.180,0.005
1.284,-0.185,0.025
1.288,-0.160,0.035
1.292,-0.130,0.035
1.296,-0.125,0.020
1.300,-0.130,0.015
1.304,-0.145,-0.010
1.308,-0.160,-0.015
1.312,-0.175,-0.010
1.316,-0.175,0.015
1.320,-0.180,0.015
1.324,-0.165,0.015
1.328,-0.160,0.000
1.332,-0.150,-0.005
1.336,-0.150,-0.010
1.340,-0.135,-0.025
1.344,-0.125,-0.015
1.348,-0.120,-0.020
1.352,-0.110,-0.025
1.356,-0.105,-0.020
1.360,-0.125,-0.025
1.364,-0.120,-0.030
1.368,-0.125,-0.040
1.372,-0.115,-0.050
1.376,-0.105,-0.055
1.380,-0.105,-0.035
1.384,-0.085,-0.025
1.388,-0.055,-0.030
1.392,-0.045,-0.050
1.396,-0.040,-0.055
1.400,-0.035,-0.065
1.404,-0.025,-0.090
1.408,-0.025,-0.090
1.412,0.000,-0.090
1.416,0.030,-0.085
1.420,0.050,-0.100
1.424,0.065,-0.115
1.428,0.070,-0.130
1.432,0.090,-0.145
1.436,0.100,-0.155
1.440,0.125,-0.165
1.444,0.145,-0.160
1.448,0.150,-0.150
1.452,0.160,-0.150
1.456,0.170,-0.150
1.460,0.165,-0.160
1.464,0.150,-0.160
1.468,0.145,-0.180
1.472,0.145,-0.175
1.476,0.150,-0.145
1.480,0.155,-0.130
1.484,0.145,-0.110
1.488,0.115,-0.100
1.492,0.090,-0.085
1.496,0.050,-0.070
1.500,0.045,-0.060
1.504,-0.010,-0.040
1.508,-0.030,-0.010
1.512,-0.045,0.025
1.516,-0.060,0.040
1.520,-0.080,0.070
1.524,-0.100,0.080
1.528,-0.115,0.080
1.532,-0.115,0.070
1.536,-0.115,0.055
1.540,-0.140,0.055
1.544,-0.150,0.070
1.548,-0.155,0.090
1.552,-0.155,0.100
1.556,-0.155,0.115
1.560,-0.155,0.110
1.564,-0.175,0.105
1.568,-0.180,0.095
1.572,-0.200,0.090
1.576,-0.190,0.090
1.580,-0.175,0.090
1.584,-0.165,0.085
1.588,-0.160,0.095
1.592,-0.160,0.100
1.596,-0.170,0.090
1.600,-0.175,0.090
1.604,-0.160,0.075
1.608,-0.170,0.080
1.612,-0.175,0.090
1.616,-0.180,0.105
1.620,-0.190,0.100
1.624,-0.175,0.100
1.628,-0.150,0.110
1.632,-0.155,0.100
1.636,-0.150,0.085
1.640,-0.155,0.070
1.644,-0.165,0.075
1.648,-0.175,0.085
1.652,-0.180,0.105
1.656,-0.195,0.105
1.660,-0.190,0.085
1.664,-0.200,0.055
1.668,-0.205,0.030
1.672,-0.200,0.030
1.676,-0.195,0.030
1.680,-0.190,0.055
1.684,-0.170,0.065
1.688,-0.170,0.075
1.692,-0.165,0.075
1.696,-0.175,0.050
1.700,-0.175,0.040
1.704,-0.170,0.040
1.708,-0.160,0.060
1.712,-0.155,0.075
1.716,-0.155,0.090
1.720,-0.135,0.085
1.724,-0.135,0.075
1.728,-0.140,0.085
1.732,-0.145,0.075
1.736,-0.155,0.070
1.740,-0.160,0.060
1.744,-0.175,0.050
1.748,-0.165,0.050
1.752,-0.160,0.080
1.756,-0.160,0.095
1.760,-0.165,0.095
1.764,-0.185,0.095
1.768,-0.175,0.085
1.772,-0.155,0.095
1.776,-0.125,0.120
1.780,-0.120,0.125
1.784,-0.135,0.135
1.788,-0.140,0.150
1.792,-0.165,0.145
1.796,-0.165,0.135
1.800,-0.160,0.130
1.804,-0.170,0.115
1.808,-0.175,0.110
1.812,-0.175,0.115
1.816,-0.155,0.125
1.820,-0.135,0.135
1.824,-0.135,0.155
1.828,-0.140,0.155
1.832,-0.150,0.140
1.836,-0.155,0.125
1.840,-0.170,0.110
1.844,-0.155,0.125
1.848,-0.145,0.140
1.852,-0.140,0.155
1.856,-0.140,0.140
1.860,-0.150,0.120
1.864,-0.160,0.100
1.868,-0.155,0.095
1.872,-0.160,0.090
1.876,-0.155,0.110
1.880,-0.150,0.115
1.884,-0.140,0.130
1.888,-0.130,0.125
1.892,-0.115,0.125
1.896,-0.095,0.145
1.900,-0.085,0.160
1.904,-0.005,0.170
1.908,0.130,0.120
1.912,0.345,0.030
1.916,0.565,-0.080
1.920,0.715,-0.190
1.924,0.665,-0.265
1.928,0.380,-0.305
1.932,-0.050,-0.245
1.936,-0.405,-0.135
1.940,-0.565,0.010
1.944,-0.590,0.185
1.948,-0.535,0.305
1.952,-0.470,0.370
1.956,-0.425,0.395
1.960,-0.400,0.395
1.964,-0.395,0.380
1.968,-0.405,0.390
1.972,-0.440,0.405
1.976,-0.430,0.440
1.980,-0.370,0.480
1.984,-0.325,0.520
1.988,-0.305,0.550
1.992,-0.305,0.560
1.996,-0.330,0.565
2.000,-0.345,0.570
2.004,-0.365,0.495
2.008,-0.355,0.435
2.012,-0.325,0.355
2.016,-0.280,0.280
2.020,-0.225,0.215
2.024,-0.190,0.160
2.028,-0.160,0.105
2.032,-0.150,0.065
2.036,-0.160,0.055
2.040,-0.170,0.045
2.044,-0.170,0.055
2.048,-0.175,0.075
2.052,-0.160,0.075
2.056,-0.135,0.080
2.060,-0.130,0.070
2.064,-0.135,0.070
2.068,-0.140,0.060
2.072,-0.150,0.065
2.076,-0.160,0.065
2.080,-0.165,0.075
2.084,-0.150,0.085
2.088,-0.140,0.090
2.092,-0.145,0.080
2.096,-0.140,0.065
2.100,-0.140,0.055
2.104,-0.140,0.025
2.108,-0.135,0.020
2.112,-0.120,0.020
2.116,-0.110,0.045
2.120,-0.100,0.050
2.124,-0.095,0.045
2.128,-0.105,0.015
2.132,-0.105,0.015
2.136,-0.110,0.005
2.140,-0.110,-0.005
2.144,-0.090,-0.005
2.148,-0.060,-0.020
2.152,-0.030,-0.025
2.156,-0.010,-0.020
2.160,-0.015,-0.035
2.164,0.005,-0.050
2.168,0.000,-0.080
2.172,0.000,-0.095
2.176,0.005,-0.100
2.180,0.025,-0.100
2.184,0.045,-0.090
2.188,0.080,-0.085
2.192,0.090,-0.105
2.196,0.105,-0.130
2.200,0.110,-0.135
2.204,0.125,-0.150
2.208,0.120,-0.140
2.212,0.120,-0.135
2.216,0.115,-0.135
2.220,0.120,-0.130
2.224,0.130,-0.115
2.228,0.110,-0.095
2.232,0.100,-0.090
2.236,0.095,-0.085
2.240,0.080,-0.055
2.244,0.065,-0.030
2.248,0.055,-0.015
2.252,0.035,0.010
2.256,0.015,0.025
2.260,0.000,0.035
2.264,-0.035,0.045
2.268,-0.065,0.060
2.272,-0.100,0.080
2.276,-0.110,0.090
2.280,-0.120,0.105
2.284,-0.125,0.120
2.288,-0.120,0.135
2.292,-0.120,0.130
2.296,-0.120,0.125
2.300,-0.115,0.120
2.304,-0.150,0.105
2.308,-0.170,0.110
2.312,-0.180,0.135
2.316,-0.185,0.135
2.320,-0.185,0.145
2.324,-0.175,0.155
2.328,-0.185,0.130
2.332,-0.180,0.125
2.336,-0.175,0.120
2.340,-0.175,0.135
2.344,-0.180,0.135
2.348,-0.175,0.140
2.352,-0.185,0.140
2.356,-0.180,0.130
2.360,-0.175,0.120
2.364,-0.195,0.105
2.368,-0.190,0.110
2.372,-0.205,0.115
2.376,-0.215,0.115
2.380,-0.200,0.130
2.384,-0.195,0.120
2.388,-0.175,0.135
2.392,-0.180,0.130
2.396,-0.185,0.115
2.400,-0.185,0.105
2.404,-0.200,0.065
2.408,-0.205,0.065
2.412,-0.205,0.070
2.416,-0.190,0.090
2.420,-0.180,0.120
2.424,-0.170,0.105
2.428,-0.160,0.115
2.432,-0.155,0.105
2.436,-0.155,0.115
2.440,-0.150,0.110
2.444,-0.145,0.115
2.448,-0.140,0.120
2.452,-0.130,0.115
2.456,-0.135,0.125
2.460,-0.145,0.110
2.464,-0.160,0.090
2.468,-0.170,0.085
2.472,-0.180,0.085
2.476,-0.175,0.085
2.480,-0.165,0.090
2.484,-0.165,0.095
2.488,-0.155,0.120
2.492,-0.165,0.140
2.496,-0.165,0.125
2.500,-0.175,0.125
2.504,-0.175,0.105
2.508,-0.185,0.100
2.512,-0.185,0.120
2.516,-0.180,0.125
2.520,-0.180,0.140
2.524,-0.165,0.155
2.528,-0.155,0.155
2.532,-0.165,0.130
2.536,-0.175,0.110
2.540,-0.190,0.100
2.544,-0.195,0.115
2.548,-0.195,0.135
2.552,-0.180,0.145
2.556,-0.165,0.150
2.560,-0.180,0.155
2.564,-0.190,0.150
2.568,-0.185,0.140
2.572,-0.180,0.145
2.576,-0.165,0.150
2.580,-0.160,0.145
2.584,-0.165,0.145
2.588,-0.155,0.135
2.592,-0.155,0.130
2.596,-0.165,0.140
2.600,-0.170,0.135
2.604,-0.185,0.120
2.608,-0.180,0.125
2.612,-0.175,0.130
2.616,-0.145,0.160
2.620,-0.110,0.190
2.624,-0.080,0.195
2.628,-0.045,0.190
2.632,-0.005,0.195
2.636,0.075,0.155
2.640,0.215,0.085
2.644,0.385,-0.010
2.648,0.530,-0.105
2.652,0.590,-0.195
2.656,0.460,-0.255
2.660,0.130,-0.280
2.664,-0.230,-0.240
2.668,-0.460,-0.125
2.672,-0.550,0.045
2.676,-0.545,0.205
2.680,-0.500,0.330
2.684,-0.455,0.405
2.688,-0.415,0.425
2.692,-0.385,0.425
2.696,-0.390,0.420
2.700,-0.395,0.415
2.704,-0.430,0.455
2.708,-0.395,0.480
2.712,-0.330,0.515
2.716,-0.280,0.565
2.720,-0.265,0.595
2.724,-0.290,0.615
2.728,-0.305,0.585
2.732,-0.325,0.510
2.736,-0.320,0.435
2.740,-0.310,0.345
2.744,-0.285,0.260
2.748,-0.240,0.190
2.752,-0.200,0.140
2.756,-0.165,0.105
2.760,-0.150,0.105
2.764,-0.150,0.095
2.768,-0.160,0.095
2.772,-0.175,0.100
2.776,-0.185,0.080
2.780,-0.175,0.075
2.784,-0.155,0.080
2.788,-0.145,0.090
2.792,-0.160,0.105
2.796,-0.160,0.080
2.800,-0.170,0.070
2.804,-0.175,0.075
2.808,-0.175,0.075
2.812,-0.165,0.075
2.816,-0.165,0.085
2.820,-0.135,0.090
2.824,-0.135,0.090
2.828,-0.150,0.095
2.832,-0.145,0.080
2.836,-0.145,0.075
2.840,-0.150,0.060
2.844,-0.140,0.065
2.848,-0.130,0.075
2.852,-0.115,0.070
2.856,-0.105,0.070
2.860,-0.095,0.050
2.864,-0.090,0.035
2.868,-0.100,0.035
2.872,-0.090,0.025
2.876,-0.085,0.020
2.880,-0.070,0.015
2.884,-0.060,0.020
2.888,-0.050,0.015
2.892,-0.030,0.015
2.896,-0.015,-0.005
2.900,-0.005,-0.015
2.904,0.020,-0.035
2.908,0.030,-0.045
2.912,0.030,-0.070
2.916,0.055,-0.075
2.920,0.075,-0.075
2.924,0.100,-0.070
2.928,0.100,-0.070
2.932,0.100,-0.085
2.936,0.110,-0.095
2.940,0.110,-0.080
2.944,0.115,-0.080
2.948,0.115,-0.070
2.952,0.115,-0.065
2.956,0.110,-0.065
2.960,0.100,-0.055
2.964,0.080,-0.030
2.968,0.055,-0.015
2.972,0.015,0.005
2.976,0.000,0.025
2.980,-0.020,0.050
2.984,-0.025,0.070
2.988,-0.030,0.100
2.992,-0.035,0.115
2.996,-0.050,0.135
3.000,-0.045,0.135
3.004,-0.095,0.130
3.008,-0.125,0.125
3.012,-0.135,0.140
3.016,-0.150,0.145
3.020,-0.145,0.160
3.024,-0.135,0.175
3.028,-0.165,0.190
3.032,-0.170,0.155
3.036,-0.180,0.155
3.040,-0.190,0.150
3.044,-0.205,0.155
3.048,-0.190,0.170
3.052,-0.180,0.195
3.056,-0.170,0.195
3.060,-0.175,0.185
3.064,-0.190,0.165
3.068,-0.195,0.160
3.072,-0.200,0.160
3.076,-0.200,0.170
3.080,-0.190,0.180
3.084,-0.180,0.185
3.088,-0.165,0.185
3.092,-0.165,0.180
3.096,-0.170,0.175
3.100,-0.175,0.180
3.104,-0.190,0.175
3.108,-0.190,0.185
3.112,-0.200,0.185
3.116,-0.200,0.170
3.120,-0.200,0.175
3.124,-0.205,0.165
3.128,-0.210,0.140
3.132,-0.210,0.120
3.136,-0.205,0.110
3.140,-0.205,0.115
3.144,-0.205,0.125
3.148,-0.200,0.145
3.152,-0.190,0.135
3.156,-0.170,0.145
3.160,-0.170,0.135
3.164,-0.170,0.140
3.168,-0.170,0.135
3.172,-0.160,0.140
3.176,-0.160,0.130
3.180,-0.155,0.130
3.184,-0.150,0.140
3.188,-0.150,0.140
3.192,-0.165,0.145
3.196,-0.170,0.135
3.200,-0.165,0.135
3.204,-0.180,0.110
3.208,-0.185,0.115
3.212,-0.195,0.130
3.216,-0.195,0.145
3.220,-0.190,0.165
3.224,-0.180,0.165
3.228,-0.170,0.155
3.232,-0.170,0.155
3.236,-0.170,0.155
3.240,-0.180,0.160
3.244,-0.185,0.180
3.248,-0.195,0.200
3.252,-0.190,0.200
3.256,-0.190,0.200
3.260,-0.190,0.195
3.264,-0.185,0.175
3.268,-0.205,0.180
3.272,-0.220,0.165
3.276,-0.220,0.170
3.280,-0.215,0.170
3.284,-0.200,0.185
3.288,-0.195,0.190
3.292,-0.195,0.195
3.296,-0.190,0.180
3.300,-0.200,0.185
3.304,-0.195,0.185
3.308,-0.210,0.180
3.312,-0.205,0.180
3.316,-0.190,0.180
3.320,-0.185,0.185
3.324,-0.185,0.180
3.328,-0.180,0.185
3.332,-0.180,0.170
3.336,-0.190,0.160
3.340,-0.190,0.165
3.344,-0.180,0.170
3.348,-0.165,0.190
3.352,-0.140,0.215
3.356,-0.105,0.250
3.360,-0.070,0.245
3.364,-0.010,0.230
3.368,0.125,0.170
3.372,0.265,0.055
3.376,0.420,-0.060
3.380,0.530,-0.170
3.384,0.505,-0.245
3.388,0.270,-0.265
3.392,-0.095,-0.225
3.396,-0.405,-0.095
3.400,-0.480,-0.055
3.404,-0.595,0.250
3.408,-0.545,0.375
3.412,-0.485,0.445
3.416,-0.425,0.455
3.420,-0.385,0.470
3.424,-0.395,0.475
3.428,-0.415,0.490
3.432,-0.410,0.520
3.436,-0.365,0.540
3.440,-0.310,0.565
3.444,-0.285,0.600
3.448,-0.290,0.635
3.452,-0.310,0.660
3.456,-0.325,0.650
3.460,-0.325,0.600
3.464,-0.315,0.525
3.468,-0.315,0.460
3.472,-0.285,0.370
3.476,-0.260,0.300
3.480,-0.230,0.235
3.484,-0.175,0.190
3.488,-0.155,0.160
3.492,-0.145,0.145
3.496,-0.145,0.130
3.500,-0.150,0.125
3.504,-0.185,0.125
3.508,-0.180,0.135
3.512,-0.170,0.125
3.516,-0.160,0.125
3.520,-0.145,0.120
3.524,-0.140,0.125
3.528,-0.150,0.135
3.532,-0.145,0.120
3.536,-0.165,0.110
3.540,-0.160,0.100
3.544,-0.170,0.105
3.548,-0.150,0.110
3.552,-0.140,0.115
3.556,-0.120,0.115
3.560,-0.125,0.105
3.564,-0.125,0.090
3.568,-0.130,0.070
3.572,-0.125,0.070
3.576,-0.125,0.065
3.580,-0.115,0.060
3.584,-0.105,0.070
3.588,-0.105,0.055
3.592,-0.085,0.040
3.596,-0.090,0.040
3.600,-0.080,0.035
3.604,-0.080,0.020
3.608,-0.070,0.010
3.612,-0.050,0.000
3.616,-0.030,0.010
3.620,-0.005,0.005
3.624,0.020,0.000
3.628,0.025,-0.005
3.632,0.030,-0.035
3.636,0.035,-0.045
3.640,0.045,-0.065
3.644,0.065,-0.070
3.648,0.075,-0.065
3.652,0.095,-0.070
3.656,0.120,-0.070
3.660,0.100,-0.080
3.664,0.105,-0.085
3.668,0.105,-0.085
3.672,0.100,-0.090
3.676,0.095,-0.080
3.680,0.100,-0.060
3.684,0.100,-0.045
3.688,0.100,-0.025
3.692,0.090,-0.010
3.696,0.065,-0.020
3.700,0.055,-0.015
3.704,0.015,0.010
3.708,-0.015,0.030
3.712,-0.040,0.075
3.716,-0.050,0.090
3.720,-0.060,0.120
3.724,-0.070,0.135
3.728,-0.095,0.135
3.732,-0.120,0.135
3.736,-0.135,0.135
3.740,-0.155,0.130
3.744,-0.165,0.150
3.748,-0.170,0.145
3.752,-0.175,0.155
3.756,-0.180,0.175
3.760,-0.185,0.185
3.764,-0.190,0.180
3.768,-0.185,0.170
3.772,-0.190,0.160
3.776,-0.205,0.165
3.780,-0.210,0.170
3.784,-0.210,0.170
3.788,-0.195,0.190
3.792,-0.190,0.185
3.796,-0.190,0.170
3.800,-0.185,0.175
3.804,-0.205,0.155
3.808,-0.205,0.165
3.812,-0.205,0.175
3.816,-0.190,0.175
3.820,-0.180,0.175
3.824,-0.170,0.165
3.828,-0.190,0.160
3.832,-0.190,0.145
3.836,-0.195,0.140
3.840,-0.200,0.135
3.844,-0.200,0.135
3.848,-0.200,0.130
3.852,-0.200,0.150
3.856,-0.200,0.155
3.860,-0.205,0.130
3.864,-0.220,0.100
3.868,-0.215,0.080
3.872,-0.210,0.080
3.876,-0.210,0.105
3.880,-0.200,0.115
3.884,-0.195,0.125
3.888,-0.175,0.145
3.892,-0.175,0.145
3.896,-0.165,0.130
3.900,-0.160,0.120
3.904,-0.155,0.105
3.908,-0.150,0.095
3.912,-0.150,0.110
3.916,-0.155,0.115
3.920,-0.170,0.135
3.924,-0.155,0.135
3.928,-0.155,0.115
3.932,-0.160,0.100
3.936,-0.185,0.085
3.940,-0.185,0.090
3.944,-0.185,0.100
3.948,-0.185,0.120
3.952,-0.175,0.140
3.956,-0.160,0.150
3.960,-0.180,0.155
3.964,-0.170,0.160
3.968,-0.190,0.170
3.972,-0.200,0.165
3.976,-0.190,0.160
3.980,-0.195,0.155
3.984,-0.180,0.160
3.988,-0.170,0.170
3.992,-0.170,0.185
3.996,-0.180,0.170
4.000,-0.185,0.160
4.004,-0.185,0.150
4.008,-0.195,0.155
4.012,-0.200,0.165
4.016,-0.200,0.180
4.020,-0.175,0.190
4.024,-0.160,0.195
4.028,-0.180,0.190
4.032,-0.185,0.180
4.036,-0.205,0.160
4.040,-0.210,0.160
4.044,-0.210,0.150
4.048,-0.210,0.160
4.052,-0.175,0.165
4.056,-0.170,0.170
4.060,-0.175,0.170
4.064,-0.190,0.165
4.068,-0.195,0.155
4.072,-0.185,0.155
4.076,-0.185,0.165
4.080,-0.180,0.175
4.084,-0.150,0.205
4.088,-0.110,0.230
4.092,-0.090,0.245
4.096,-0.045,0.240
4.100,-0.025,0.235
4.104,0.175,0.095
4.108,0.350,-0.030
4.112,0.505,-0.165
4.116,0.540,-0.265
4.120,0.350,-0.305
4.124,-0.030,-0.260
4.128,-0.395,-0.120
4.132,-0.590,0.085
4.136,-0.640,0.285
4.140,-0.585,0.425
4.144,-0.510,0.475
4.148,-0.450,0.475
4.152,-0.415,0.465
4.156,-0.435,0.475
4.160,-0.430,0.515
4.164,-0.410,0.550
4.168,-0.365,0.560
4.172,-0.330,0.585
4.176,-0.315,0.615
4.180,-0.330,0.640
4.184,-0.350,0.640
4.188,-0.355,0.605
4.192,-0.340,0.535
4.196,-0.325,0.420
4.200,-0.315,0.385
4.204,-0.265,0.215
4.208,-0.240,0.150
4.212,-0.210,0.115
4.216,-0.190,0.100
4.220,-0.180,0.095
4.224,-0.175,0.095
4.228,-0.180,0.090
4.232,-0.195,0.075
4.236,-0.200,0.070
4.240,-0.200,0.065
4.244,-0.195,0.060
4.248,-0.180,0.070
4.252,-0.170,0.085
4.256,-0.165,0.090
4.260,-0.165,0.090
4.264,-0.160,0.090
4.268,-0.160,0.070
4.272,-0.170,0.060
4.276,-0.175,0.045
4.280,-0.170,0.060
4.284,-0.180,0.070
4.288,-0.165,0.085
4.292,-0.170,0.090
4.296,-0.165,0.070
4.300,-0.165,0.055
4.304,-0.150,0.035
4.308,-0.150,0.030
4.312,-0.150,0.030
4.316,-0.145,0.035
4.320,-0.120,0.035
4.324,-0.110,0.025
4.328,-0.100,0.040
4.332,-0.110,0.030
4.336,-0.115,0.005
4.340,-0.110,-0.010
4.344,-0.100,-0.015
4.348,-0.075,-0.005
4.352,-0.055,-0.015
4.356,-0.020,-0.015
4.360,-0.005,-0.030
4.364,0.010,-0.065
4.368,0.010,-0.080
4.372,0.025,-0.085
4.376,0.035,-0.095
4.380,0.045,-0.075
4.384,0.050,-0.085
4.388,0.060,-0.080
4.392,0.070,-0.100
4.396,0.080,-0.105
4.400,0.075,-0.115
4.404,0.080,-0.120
4.408,0.080,-0.125
4.412,0.075,-0.105
4.416,0.075,-0.090
4.420,0.065,-0.065
4.424,0.050,-0.050
4.428,0.030,-0.055
4.432,0.010,-0.040
4.436,-0.015,-0.030
4.440,-0.045,-0.005
4.444,-0.065,0.020
4.448,-0.070,0.055
4.452,-0.080,0.085
4.456,-0.095,0.100
4.460,-0.120,0.100
4.464,-0.135,0.090
4.468,-0.155,0.100
4.472,-0.170,0.105
4.476,-0.185,0.110
4.480,-0.190,0.125
4.484,-0.195,0.145
4.488,-0.190,0.150
4.492,-0.195,0.160
4.496,-0.205,0.150
4.500,-0.205,0.155
4.504,-0.230,0.135
4.508,-0.235,0.130
4.512,-0.235,0.145
4.516,-0.225,0.150
4.520,-0.220,0.165
4.524,-0.220,0.150
4.528,-0.230,0.145
4.532,-0.230,0.130
4.536,-0.250,0.125
4.540,-0.245,0.130
4.544,-0.235,0.130
4.548,-0.225,0.150
4.552,-0.215,0.155
4.556,-0.205,0.160
4.560,-0.210,0.160
4.564,-0.210,0.150
4.568,-0.235,0.155
4.572,-0.245,0.135
4.576,-0.245,0.130
4.580,-0.240,0.145
4.584,-0.235,0.165
4.588,-0.235,0.165
4.592,-0.240,0.155
4.596,-0.235,0.120
4.600,-0.240,0.105
4.604,-0.250,0.075
4.608,-0.240,0.080
4.612,-0.230,0.100
4.616,-0.220,0.100
4.620,-0.215,0.095
4.624,-0.225,0.115
4.628,-0.210,0.115
4.632,-0.210,0.115
4.636,-0.200,0.125
4.640,-0.180,0.105
4.644,-0.175,0.130
4.648,-0.175,0.135
4.652,-0.175,0.140
4.656,-0.180,0.135
4.660,-0.195,0.140
4.664,-0.205,0.120
4.668,-0.220,0.110
4.672,-0.215,0.105
4.676,-0.215,0.095
4.680,-0.205,0.105
4.684,-0.195,0.115
4.688,-0.190,0.120
4.692,-0.205,0.130
4.696,-0.205,0.120
4.700,-0.205,0.115
4.704,-0.220,0.125
4.708,-0.215,0.135
4.712,-0.220,0.150
4.716,-0.215,0.170
4.720,-0.220,0.180
4.724,-0.220,0.170
4.728,-0.200,0.165
4.732,-0.210,0.155
4.736,-0.220,0.150
4.740,-0.235,0.155
4.744,-0.255,0.165
4.748,-0.240,0.165
4.752,-0.225,0.170
4.756,-0.205,0.190
4.760,-0.215,0.185
4.764,-0.220,0.180
4.768,-0.235,0.170
4.772,-0.230,0.155
4.776,-0.230,0.155
4.780,-0.225,0.165
4.784,-0.225,0.180
4.788,-0.230,0.185
4.792,-0.220,0.170
4.796,-0.220,0.165
4.800,-0.220,0.160
4.804,-0.240,0.155
4.808,-0.240,0.160
4.812,-0.245,0.165
4.816,-0.225,0.155
4.820,-0.215,0.170
4.824,-0.200,0.165
4.828,-0.180,0.170
4.832,-0.175,0.175
4.836,-0.165,0.185
4.840,-0.150,0.205
4.844,-0.090,0.220
4.848,0.005,0.205
4.852,0.135,0.125
4.856,0.280,0.015
4.860,0.405,-0.115
4.864,0.455,-0.245
4.868,0.280,-0.330
4.872,-0.035,-0.320
4.876,-0.360,-0.220
4.880,-0.565,-0.045
4.884,-0.615,0.155
4.888,-0.580,0.325
4.892,-0.535,0.420
4.896,-0.495,0.445
4.900,-0.485,0.450
4.904,-0.455,0.440
4.908,-0.465,0.445
4.912,-0.480,0.480
4.916,-0.455,0.525
4.920,-0.400,0.565
4.924,-0.335,0.585
4.928,-0.300,0.600
4.932,-0.320,0.620
4.936,-0.365,0.630
4.940,-0.395,0.620
4.944,-0.390,0.565
4.948,-0.375,0.475
4.952,-0.340,0.370
4.956,-0.300,0.255
4.960,-0.255,0.185
4.964,-0.225,0.110
4.968,-0.215,0.080
4.972,-0.220,0.080
4.976,-0.230,0.085
4.980,-0.225,0.090
4.984,-0.220,0.090
4.988,-0.210,0.090
4.992,-0.200,0.090
4.996,-0.210,0.075
5.000,-0.205,0.075
5.004,-0.215,0.060
5.008,-0.215,0.050
5.012,-0.205,0.065
5.016,-0.200,0.080
5.020,-0.190,0.080
5.024,-0.185,0.085
5.028,-0.185,0.070
5.032,-0.200,0.065
5.036,-0.195,0.060
5.040,-0.195,0.070
5.044,-0.195,0.070
5.048,-0.175,0.080
5.052,-0.175,0.075
5.056,-0.165,0.060
5.060,-0.155,0.040
5.064,-0.155,0.035
5.068,-0.155,0.035
5.072,-0.160,0.020
5.076,-0.165,0.010
5.080,-0.155,0.020
5.084,-0.145,0.030
5.088,-0.125,0.030
5.092,-0.110,0.030
5.096,-0.110,0.020
5.100,-0.100,0.000
5.104,-0.095,-0.030
5.108,-0.090,-0.055
5.112,-0.075,-0.055
5.116,-0.040,-0.050
5.120,-0.030,-0.050
5.124,-0.010,-0.055
5.128,0.000,-0.065
5.132,0.005,-0.090
5.136,0.030,-0.110
5.140,0.025,-0.120
5.144,0.035,-0.115
5.148,0.050,-0.110
5.152,0.070,-0.115
5.156,0.085,-0.115
5.160,0.085,-0.130
5.164,0.075,-0.125
5.168,0.060,-0.115
5.172,0.050,-0.105
5.176,0.030,-0.090
5.180,0.020,-0.075
5.184,0.015,-0.055
5.188,-0.010,-0.025
5.192,-0.020,-0.015
5.196,-0.045,-0.015
5.200,-0.055,-0.010
5.204,-0.085,0.005
5.208,-0.100,0.030
5.212,-0.105,0.065
5.216,-0.130,0.095
5.220,-0.155,0.100
5.224,-0.160,0.120
5.228,-0.175,0.120
5.232,-0.180,0.120
5.236,-0.195,0.120
5.240,-0.200,0.120
5.244,-0.210,0.135
5.248,-0.210,0.145
5.252,-0.215,0.145
5.256,-0.210,0.150
5.260,-0.235,0.145
5.264,-0.220,0.150
5.268,-0.235,0.145
5.272,-0.240,0.145
5.276,-0.250,0.145
5.280,-0.255,0.130
5.284,-0.250,0.140
5.288,-0.235,0.160
5.292,-0.225,0.170
5.296,-0.235,0.165
5.300,-0.230,0.165
5.304,-0.240,0.135
5.308,-0.250,0.140
5.312,-0.245,0.145
5.316,-0.240,0.130
5.320,-0.220,0.130
5.324,-0.210,0.145
5.328,-0.210,0.135
5.332,-0.230,0.135
5.336,-0.225,0.130
5.340,-0.235,0.110
5.344,-0.230,0.115
5.348,-0.220,0.125
5.352,-0.220,0.120
5.356,-0.200,0.130
5.360,-0.210,0.135
5.364,-0.210,0.130
5.368,-0.215,0.120
5.372,-0.225,0.110
5.376,-0.235,0.100
5.380,-0.215,0.095
5.384,-0.200,0.090
5.388,-0.210,0.105
5.392,-0.225,0.100
5.396,-0.235,0.085
5.400,-0.240,0.070
5.404,-0.245,0.055
5.408,-0.245,0.060
5.412,-0.260,0.065
5.416,-0.245,0.060
5.420,-0.255,0.060
5.424,-0.240,0.060
5.428,-0.250,0.060
5.432,-0.240,0.060
5.436,-0.245,0.045
5.440,-0.270,0.060
5.444,-0.280,0.050
5.448,-0.275,0.040
5.452,-0.265,0.045
5.456,-0.255,0.050
5.460,-0.260,0.060
5.464,-0.255,0.060
5.468,-0.260,0.050
5.472,-0.260,0.055
5.476,-0.260,0.055
5.480,-0.250,0.045
5.484,-0.245,0.045
5.488,-0.240,0.055
5.492,-0.230,0.060
5.496,-0.235,0.060
5.500,-0.235,0.055
5.504,-0.245,0.055
5.508,-0.255,0.065
5.512,-0.260,0.080
5.516,-0.260,0.095
5.520,-0.265,0.115
5.524,-0.255,0.115
5.528,-0.235,0.095
5.532,-0.245,0.080
5.536,-0.230,0.075
5.540,-0.245,0.060
5.544,-0.245,0.085
5.548,-0.240,0.090
5.552,-0.235,0.095
5.556,-0.225,0.095
5.560,-0.225,0.085
5.564,-0.235,0.085
5.568,-0.245,0.055
5.572,-0.255,0.055
5.576,-0.270,0.065
5.580,-0.260,0.090
5.584,-0.240,0.110
5.588,-0.200,0.115
5.592,-0.205,0.100
5.596,-0.215,0.090
5.600,-0.220,0.085
5.604,-0.250,0.065
5.608,-0.265,0.060
5.612,-0.260,0.060
5.616,-0.245,0.065
5.620,-0.230,0.060
5.624,-0.230,0.085
5.628,-0.215,0.085
5.632,-0.230,0.055
5.636,-0.235,0.035
5.640,-0.250,0.030
5.644,-0.255,0.035
5.648,-0.250,0.060
5.652,-0.240,0.060
5.656,-0.225,0.055
5.660,-0.230,0.045
5.664,-0.245,0.020
5.668,-0.250,0.020
5.672,-0.265,0.025
5.676,-0.280,0.030
5.680,-0.275,0.050
5.684,-0.255,0.060
5.688,-0.240,0.070
5.692,-0.235,0.065
5.696,-0.235,0.060
5.700,-0.240,0.060
5.704,-0.255,0.055
5.708,-0.275,0.065
5.712,-0.275,0.075
5.716,-0.260,0.095
5.720,-0.235,0.085
5.724,-0.230,0.070
5.728,-0.240,0.065
5.732,-0.245,0.050
5.736,-0.255,0.055
5.740,-0.265,0.070
5.744,-0.270,0.060
5.748,-0.265,0.070
5.752,-0.270,0.080
5.756,-0.255,0.095
5.760,-0.230,0.080
5.764,-0.230,0.075
5.768,-0.240,0.070
5.772,-0.265,0.055
5.776,-0.280,0.045
5.780,-0.270,0.035
5.784,-0.270,0.050
5.788,-0.260,0.060
5.792,-0.265,0.055
5.796,-0.265,0.040
5.800,-0.260,0.035
5.804,-0.265,0.030
5.808,-0.265,0.020
5.812,-0.270,0.015
5.816,-0.265,0.030
5.820,-0.270,0.050
5.824,-0.250,0.050
5.828,-0.250,0.030
5.832,-0.260,0.025
5.836,-0.270,0.025
5.840,-0.295,0.000
5.844,-0.290,0.000
5.848,-0.280,0.005
5.852,-0.265,0.020
5.856,-0.260,0.025
5.860,-0.250,0.030
5.864,-0.255,0.020
5.868,-0.265,0.010
5.872,-0.270,0.005
5.876,-0.280,0.005
5.880,-0.285,0.025
5.884,-0.265,0.045
5.888,-0.270,0.050
5.892,-0.275,0.050
5.896,-0.270,0.045
5.900,-0.265,0.035
5.904,-0.270,0.015
5.908,-0.275,0.025
5.912,-0.270,0.040
5.916,-0.280,0.055
5.920,-0.265,0.070
5.924,-0.255,0.080
5.928,-0.255,0.055
5.932,-0.280,0.040
5.936,-0.290,0.020
5.940,-0.300,0.015
5.944,-0.295,0.045
5.948,-0.290,0.060
5.952,-0.285,0.065
5.956,-0.275,0.060
5.960,-0.295,0.040
5.964,-0.295,0.035
5.968,-0.280,0.030
5.972,-0.285,0.020
5.976,-0.300,0.025
5.980,-0.300,0.035
5.984,-0.280,0.055
5.988,-0.285,0.050
5.992,-0.265,0.055
5.996,-0.275,0.050
6.000,-0.280,0.045
6.004,-0.285,0.025
6.008,-0.285,0.010
6.012,-0.290,0.015
6.016,-0.285,0.025
6.020,-0.275,0.045
6.024,-0.275,0.040
6.028,-0.285,0.030
6.032,-0.275,0.020
6.036,-0.285,0.010
6.040,-0.300,0.010
6.044,-0.305,0.020
6.048,-0.295,0.045
6.052,-0.290,0.060
6.056,-0.265,0.065
6.060,-0.260,0.035
6.064,-0.280,0.020
6.068,-0.280,0.020
6.072,-0.280,0.020
6.076,-0.295,0.030
6.080,-0.285,0.040
6.084,-0.270,0.050
6.088,-0.260,0.050
6.092,-0.255,0.050
6.096,-0.275,0.045
6.100,-0.280,0.040
6.104,-0.280,0.035
6.108,-0.275,0.040
6.112,-0.285,0.045
6.116,-0.270,0.045
6.120,-0.270,0.055
6.124,-0.270,0.055
6.128,-0.260,0.050
6.132,-0.265,0.045
6.136,-0.280,0.040
6.140,-0.285,0.020
6.144,-0.290,0.025
6.148,-0.280,0.020
6.152,-0.260,0.040
6.156,-0.245,0.050
6.160,-0.265,0.050
6.164,-0.275,0.045
6.168,-0.280,0.045
6.172,-0.285,0.035
6.176,-0.300,0.035
6.180,-0.290,0.035
6.184,-0.275,0.030
6.188,-0.275,0.035
6.192,-0.280,0.040
6.196,-0.275,0.040
6.200,-0.275,0.050
6.204,-0.280,0.030
6.208,-0.285,0.035
6.212,-0.290,0.025
6.216,-0.275,0.025
6.220,-0.275,0.040
6.224,-0.275,0.030
6.228,-0.265,0.025
6.232,-0.280,0.020
6.236,-0.290,0.010
6.240,-0.290,0.010
6.244,-0.290,0.025
6.248,-0.285,0.030
6.252,-0.270,0.025
6.256,-0.265,0.040
6.260,-0.250,0.030
6.264,-0.255,0.015
6.268,-0.280,0.015
6.272,-0.275,0.010
6.276,-0.290,0.005
6.280,-0.275,0.020
6.284,-0.275,0.025
6.288,-0.265,0.035
6.292,-0.260,0.025
6.296,-0.260,0.030
6.300,-0.250,0.020
6.304,-0.260,0.010
6.308,-0.275,0.005
6.312,-0.270,0.015
6.316,-0.280,0.040
6.320,-0.265,0.060
6.324,-0.245,0.045
6.328,-0.245,0.040
6.332,-0.260,0.045
6.336,-0.275,0.030
6.340,-0.275,0.030
6.344,-0.280,0.035
6.348,-0.265,0.040
6.352,-0.255,0.050
6.356,-0.245,0.050
6.360,-0.250,0.055
6.364,-0.260,0.050
6.368,-0.265,0.045
6.372,-0.275,0.025
6.376,-0.280,0.030
6.380,-0.255,0.030
6.384,-0.225,0.065
6.388,-0.200,0.075
6.392,-0.200,0.070
6.396,-0.190,0.065
6.400,-0.190,0.060
6.404,-0.190,0.050
6.408,-0.195,0.050
6.412,-0.195,0.055
6.416,-0.180,0.045
6.420,-0.165,0.040
6.424,-0.160,0.035
6.428,-0.165,0.020
6.432,-0.170,0.025
6.436,-0.195,0.000
6.440,-0.210,0.005
6.444,-0.225,0.005
6.448,-0.235,0.015
6.452,-0.210,0.040
6.456,-0.200,0.055
6.460,-0.190,0.040
6.464,-0.205,0.020
6.468,-0.205,-0.005
6.472,-0.215,-0.010
6.476,-0.230,0.015
6.480,-0.245,0.035
6.484,-0.245,0.045
6.488,-0.255,0.040
6.492,-0.275,0.045
6.496,-0.275,0.045
6.500,-0.285,0.045
6.504,-0.285,0.040
6.508,-0.290,0.035
6.512,-0.285,0.045
6.516,-0.275,0.050
6.520,-0.275,0.065
6.524,-0.260,0.055
6.528,-0.265,0.050
6.532,-0.265,0.035
6.536,-0.260,0.010
6.540,-0.260,0.040
6.544,-0.275,0.055
6.548,-0.265,0.060
6.552,-0.265,0.060
6.556,-0.255,0.060
6.560,-0.255,0.060
6.564,-0.250,0.060
6.568,-0.250,0.040
6.572,-0.250,0.015
6.576,-0.250,0.025
6.580,-0.230,0.050
6.584,-0.210,0.080
6.588,-0.165,0.110
6.592,-0.085,0.105
6.596,0.075,0.070
6.600,0.130,0.050
6.604,0.460,-0.110
6.608,0.620,-0.200
6.612,0.615,-0.275
6.616,0.365,-0.315
6.620,-0.040,-0.295
6.624,-0.385,-0.195
6.628,-0.565,-0.045
6.632,-0.620,0.100
6.636,-0.605,0.215
6.640,-0.565,0.250
6.644,-0.515,0.265
6.648,-0.490,0.270
6.652,-0.485,0.300
6.656,-0.520,0.335
6.660,-0.520,0.380
6.664,-0.480,0.410
6.668,-0.440,0.425
6.672,-0.400,0.450
6.676,-0.390,0.465
6.680,-0.410,0.500
6.684,-0.425,0.500
6.688,-0.415,0.485
6.692,-0.415,0.420
6.696,-0.385,0.335
6.700,-0.375,0.305
6.704,-0.335,0.155
6.708,-0.315,0.085
6.712,-0.285,0.065
6.716,-0.265,0.045
6.720,-0.250,0.045
6.724,-0.235,0.035
6.728,-0.245,0.020
6.732,-0.250,0.020
6.736,-0.245,0.020
6.740,-0.245,0.030
6.744,-0.240,0.035
6.748,-0.245,0.035
6.752,-0.245,0.040
6.756,-0.235,0.040
6.760,-0.235,0.040
6.764,-0.245,0.010
6.768,-0.240,0.015
6.772,-0.255,0.005
6.776,-0.250,0.015
6.780,-0.230,0.020
6.784,-0.230,0.020
6.788,-0.215,0.035
6.792,-0.205,0.030
6.796,-0.205,0.010
6.800,-0.200,0.005
6.804,-0.205,-0.010
6.808,-0.205,-0.020
6.812,-0.200,-0.015
6.816,-0.180,-0.020
6.820,-0.165,-0.015
6.824,-0.150,-0.025
6.828,-0.150,-0.020
6.832,-0.150,-0.025
6.836,-0.135,-0.040
6.840,-0.130,-0.060
6.844,-0.110,-0.065
6.848,-0.095,-0.075
6.852,-0.070,-0.080
6.856,-0.040,-0.085
6.860,-0.035,-0.100
6.864,-0.025,-0.110
6.868,-0.020,-0.135
6.872,-0.020,-0.145
6.876,-0.005,-0.140
6.880,0.010,-0.130
6.884,0.020,-0.115
6.888,0.030,-0.120
6.892,0.045,-0.125
6.896,0.035,-0.135
6.900,0.040,-0.140
6.904,0.035,-0.150
6.908,0.035,-0.140
6.912,0.030,-0.120
6.916,0.025,-0.095
6.920,0.030,-0.085
6.924,0.020,-0.070
6.928,-0.005,-0.055
6.932,-0.025,-0.050
6.936,-0.050,-0.040
6.940,-0.085,-0.020
6.944,-0.090,0.005
6.948,-0.100,0.025
6.952,-0.095,0.045
6.956,-0.125,0.060
6.960,-0.155,0.065
6.964,-0.150,0.060
6.968,-0.180,0.050
6.972,-0.185,0.060
6.976,-0.205,0.060
6.980,-0.210,0.070
6.984,-0.200,0.080
6.988,-0.180,0.090
6.992,-0.180,0.090
6.996,-0.200,0.085
7.000,-0.200,0.080
7.004,-0.240,0.075
7.008,-0.255,0.065
7.012,-0.255,0.065
7.016,-0.265,0.065
7.020,-0.260,0.070
7.024,-0.250,0.060
7.028,-0.240,0.050
7.032,-0.245,0.015
7.036,-0.250,0.010
7.040,-0.250,0.020
7.044,-0.250,0.025
7.048,-0.235,0.050
7.052,-0.225,0.065
7.056,-0.205,0.060
7.060,-0.190,0.060
7.064,-0.190,0.060
7.068,-0.185,0.060
7.072,-0.190,0.050
7.076,-0.180,0.035
7.080,-0.170,0.045
7.084,-0.180,0.060
7.088,-0.185,0.075
7.092,-0.185,0.065
7.096,-0.200,0.050
7.100,-0.190,0.045
7.104,-0.210,0.040
7.108,-0.205,0.050
7.112,-0.205,0.060
7.116,-0.185,0.080
7.120,-0.165,0.095
7.124,-0.150,0.095
7.128,-0.135,0.080
7.132,-0.150,0.080
7.136,-0.160,0.075
7.140,-0.175,0.090
7.144,-0.175,0.100
7.148,-0.175,0.110
7.152,-0.175,0.115
7.156,-0.165,0.120
7.160,-0.175,0.110
7.164,-0.165,0.115
7.168,-0.165,0.105
7.172,-0.165,0.105
7.176,-0.195,0.100
7.180,-0.185,0.110
7.184,-0.180,0.100
7.188,-0.185,0.115
7.192,-0.180,0.105
7.196,-0.185,0.105
7.200,-0.185,0.100
7.204,-0.190,0.095
7.208,-0.200,0.100
7.212,-0.190,0.100
7.216,-0.195,0.115
7.220,-0.190,0.110
7.224,-0.180,0.100
7.228,-0.165,0.090
7.232,-0.170,0.095
7.236,-0.175,0.100
7.240,-0.180,0.120
7.244,-0.170,0.130
7.248,-0.145,0.135
7.252,-0.125,0.160
7.256,-0.075,0.175
7.260,0.025,0.170
7.264,0.160,0.125
7.268,0.345,0.025
7.272,0.530,-0.090
7.276,0.675,-0.195
7.280,0.685,-0.255
7.284,0.490,-0.285
7.288,0.105,-0.265
7.292,-0.290,-0.180
7.296,-0.530,-0.010
7.300,-0.585,0.045
7.304,-0.570,0.300
7.308,-0.515,0.360
7.312,-0.465,0.365
7.316,-0.420,0.360
7.320,-0.410,0.385
7.324,-0.440,0.410
7.328,-0.460,0.455
7.332,-0.450,0.455
7.336,-0.405,0.460
7.340,-0.355,0.485
7.344,-0.330,0.520
7.348,-0.340,0.555
7.352,-0.335,0.590
7.356,-0.340,0.575
7.360,-0.345,0.525
7.364,-0.335,0.455
7.368,-0.320,0.335
7.372,-0.295,0.240
7.376,-0.250,0.155
7.380,-0.215,0.105
7.384,-0.185,0.075
7.388,-0.170,0.050
7.392,-0.170,0.030
7.396,-0.185,0.030
7.400,-0.190,0.040
7.404,-0.195,0.020
7.408,-0.205,0.015
7.412,-0.205,0.020
7.416,-0.195,0.030
7.420,-0.195,0.040
7.424,-0.185,0.035
7.428,-0.185,0.030
7.432,-0.190,0.010
7.436,-0.200,-0.010
7.440,-0.210,-0.010
7.444,-0.190,0.000
7.448,-0.170,0.015
7.452,-0.160,0.020
7.456,-0.160,0.025
7.460,-0.150,0.020
7.464,-0.155,0.025
7.468,-0.160,0.020
7.472,-0.160,0.010
7.476,-0.160,0.015
7.480,-0.145,0.020
7.484,-0.135,0.015
7.488,-0.110,0.015
7.492,-0.100,0.005
7.496,-0.110,0.000
7.500,-0.110,0.005
7.504,-0.090,-0.020
7.508,-0.090,-0.045
7.512,-0.085,-0.065
7.516,-0.055,-0.055
7.520,-0.040,-0.055
7.524,-0.015,-0.065
7.528,0.010,-0.090
7.532,0.020,-0.120
7.536,0.025,-0.120
7.540,0.030,-0.135
7.544,0.040,-0.125
7.548,0.045,-0.120
7.552,0.080,-0.125
7.556,0.105,-0.120
7.560,0.115,-0.135
7.564,0.120,-0.140
7.568,0.120,-0.160
7.572,0.110,-0.155
7.576,0.090,-0.160
7.580,0.100,-0.120
7.584,0.100,-0.105
7.588,0.085,-0.075
7.592,0.055,-0.050
7.596,0.035,-0.020
7.600,0.025,-0.025
7.604,-0.025,-0.015
7.608,-0.060,-0.005
7.612,-0.080,0.030
7.616,-0.110,0.040
7.620,-0.115,0.070
7.624,-0.135,0.095
7.628,-0.140,0.090
7.632,-0.140,0.085
7.636,-0.155,0.070
7.640,-0.185,0.070
7.644,-0.200,0.085
7.648,-0.215,0.085
7.652,-0.220,0.100
7.656,-0.215,0.110
7.660,-0.210,0.115
7.664,-0.225,0.100
7.668,-0.235,0.100
7.672,-0.245,0.095
7.676,-0.255,0.100
7.680,-0.245,0.120
7.684,-0.235,0.130
7.688,-0.230,0.135
7.692,-0.230,0.115
7.696,-0.230,0.100
7.700,-0.230,0.095
7.704,-0.245,0.105
7.708,-0.240,0.110
7.712,-0.255,0.115
7.716,-0.245,0.120
7.720,-0.235,0.140
7.724,-0.210,0.140
7.728,-0.210,0.140
7.732,-0.205,0.115
7.736,-0.210,0.100
7.740,-0.220,0.080
7.744,-0.230,0.075
7.748,-0.225,0.090
7.752,-0.215,0.120
7.756,-0.205,0.120
7.760,-0.240,0.110
7.764,-0.245,0.095
7.768,-0.245,0.080
7.772,-0.250,0.085
7.776,-0.245,0.070
7.780,-0.240,0.070
7.784,-0.245,0.070
7.788,-0.250,0.080
7.792,-0.245,0.090
7.796,-0.245,0.085
7.800,-0.245,0.085
7.804,-0.250,0.075
7.808,-0.240,0.085
7.812,-0.215,0.085
7.816,-0.205,0.090
7.820,-0.170,0.090
7.824,-0.185,0.095
7.828,-0.195,0.090
7.832,-0.215,0.090
7.836,-0.220,0.090
7.840,-0.240,0.085
7.844,-0.250,0.095
7.848,-0.240,0.100
7.852,-0.230,0.095
7.856,-0.220,0.105
7.860,-0.225,0.115
7.864,-0.235,0.100
7.868,-0.240,0.090
7.872,-0.230,0.095
7.876,-0.220,0.105
7.880,-0.205,0.130
7.884,-0.210,0.150
7.888,-0.215,0.165
7.892,-0.225,0.155
7.896,-0.225,0.155
7.900,-0.240,0.145
7.904,-0.240,0.140
7.908,-0.235,0.145
7.912,-0.225,0.130
7.916,-0.220,0.140
7.920,-0.210,0.140
7.924,-0.205,0.155
7.928,-0.210,0.145
7.932,-0.205,0.150
7.936,-0.210,0.140
7.940,-0.225,0.130
7.944,-0.225,0.130
7.948,-0.225,0.135
7.952,-0.210,0.150
7.956,-0.200,0.150
7.960,-0.195,0.160
7.964,-0.215,0.165
7.968,-0.210,0.145
7.972,-0.215,0.140
7.976,-0.225,0.140
7.980,-0.235,0.140
7.984,-0.205,0.155
7.988,-0.185,0.165
7.992,-0.175,0.180
7.996,-0.150,0.180
8.000,-0.155,0.185
8.004,-0.085,0.195
8.008,0.015,0.190
8.012,0.165,0.135
8.016,0.355,0.035
8.020,0.505,-0.085
8.024,0.575,-0.200
8.028,0.465,-0.285
8.032,0.140,-0.310
8.036,-0.245,-0.270
8.040,-0.520,-0.110
8.044,-0.645,0.100
8.048,-0.640,0.285
8.052,-0.575,0.390
8.056,-0.500,0.425
8.060,-0.455,0.430
8.064,-0.450,0.415
8.068,-0.470,0.435
8.072,-0.495,0.450
8.076,-0.495,0.490
8.080,-0.445,0.520
8.084,-0.380,0.520
8.088,-0.350,0.545
8.092,-0.335,0.575
8.096,-0.360,0.600
8.100,-0.365,0.600
8.104,-0.395,0.545
8.108,-0.395,0.470
8.112,-0.370,0.385
8.116,-0.335,0.305
8.120,-0.285,0.240
8.124,-0.245,0.180
8.128,-0.225,0.130
8.132,-0.225,0.090
8.136,-0.230,0.080
8.140,-0.240,0.065
8.144,-0.235,0.070
8.148,-0.225,0.075
8.152,-0.225,0.090
8.156,-0.210,0.110
8.160,-0.210,0.095
8.164,-0.210,0.070
8.168,-0.210,0.070
8.172,-0.215,0.055
8.176,-0.225,0.060
8.180,-0.235,0.060
8.184,-0.215,0.055
8.188,-0.210,0.075
8.192,-0.195,0.070
8.196,-0.205,0.065
8.200,-0.195,0.060
8.204,-0.185,0.045
8.208,-0.180,0.035
8.212,-0.175,0.035
8.216,-0.175,0.045
8.220,-0.175,0.045
8.224,-0.165,0.045
8.228,-0.165,0.040
8.232,-0.170,0.025
8.236,-0.180,0.000
8.240,-0.190,0.000
8.244,-0.180,-0.005
8.248,-0.155,-0.005
8.252,-0.120,0.000
8.256,-0.105,0.005
8.260,-0.100,-0.005
8.264,-0.095,-0.030
8.268,-0.110,-0.045
8.272,-0.110,-0.085
8.276,-0.090,-0.100
8.280,-0.060,-0.105
8.284,-0.045,-0.115
8.288,-0.025,-0.105
8.292,0.000,-0.110
8.296,0.005,-0.115
8.300,0.005,-0.110
8.304,0.015,-0.170
8.308,0.020,-0.185
8.312,0.025,-0.185
8.316,0.035,-0.155
8.320,0.040,-0.130
8.324,0.055,-0.135
8.328,0.060,-0.135
8.332,0.050,-0.145
8.336,0.040,-0.135
8.340,0.015,-0.110
8.344,-0.020,-0.085
8.348,-0.045,-0.055
8.352,-0.045,-0.025
8.356,-0.055,-0.010
8.360,-0.070,-0.005
8.364,-0.085,0.000
8.368,-0.105,0.000
8.372,-0.135,0.015
8.376,-0.150,0.035
8.380,-0.155,0.060
8.384,-0.165,0.090
8.388,-0.170,0.125
8.392,-0.170,0.145
8.396,-0.185,0.135
8.400,-0.200,0.130
8.404,-0.240,0.110
8.408,-0.255,0.105
8.412,-0.250,0.120
8.416,-0.245,0.150
8.420,-0.230,0.145
8.424,-0.225,0.150
8.428,-0.235,0.130
8.432,-0.230,0.120
8.436,-0.245,0.115
8.440,-0.265,0.115
8.444,-0.275,0.120
8.448,-0.265,0.115
8.452,-0.255,0.110
8.456,-0.250,0.115
8.460,-0.255,0.125
8.464,-0.265,0.125
8.468,-0.275,0.115
8.472,-0.270,0.100
8.476,-0.270,0.095
8.480,-0.260,0.100
8.484,-0.255,0.105
8.488,-0.250,0.115
8.492,-0.240,0.125
8.496,-0.240,0.125
8.500,-0.240,0.130
8.504,-0.255,0.120
8.508,-0.260,0.115
8.512,-0.265,0.105
8.516,-0.255,0.100
8.520,-0.255,0.095
8.524,-0.235,0.105
8.528,-0.240,0.090
8.532,-0.240,0.080
8.536,-0.235,0.075
8.540,-0.240,0.080
8.544,-0.250,0.080
8.548,-0.245,0.090
8.552,-0.235,0.110
8.556,-0.220,0.105
8.560,-0.240,0.110
8.564,-0.250,0.110
8.568,-0.265,0.120
8.572,-0.275,0.110
8.576,-0.265,0.095
8.580,-0.260,0.085
8.584,-0.250,0.075
8.588,-0.255,0.085
8.592,-0.255,0.095
8.596,-0.260,0.090
8.600,-0.255,0.085
8.604,-0.275,0.075
8.608,-0.285,0.080
8.612,-0.280,0.070
8.616,-0.275,0.080
8.620,-0.270,0.075
8.624,-0.260,0.095
8.628,-0.255,0.095
8.632,-0.270,0.070
8.636,-0.275,0.070
8.640,-0.285,0.060
8.644,-0.295,0.075
8.648,-0.285,0.080
8.652,-0.275,0.075
8.656,-0.265,0.080
8.660,-0.260,0.095
8.664,-0.255,0.085
8.668,-0.270,0.070
8.672,-0.255,0.070
8.676,-0.270,0.070
8.680,-0.280,0.070
8.684,-0.290,0.100
8.688,-0.290,0.110
8.692,-0.290,0.100
8.696,-0.290,0.090
8.700,-0.295,0.080
8.704,-0.305,0.085
8.708,-0.310,0.075
8.712,-0.300,0.095
8.716,-0.300,0.105
8.720,-0.285,0.110
8.724,-0.280,0.105
8.728,-0.295,0.110
8.732,-0.295,0.095
8.736,-0.300,0.080
8.740,-0.305,0.090
8.744,-0.300,0.080
8.748,-0.300,0.090
8.752,-0.300,0.095
8.756,-0.280,0.110
8.760,-0.275,0.115
8.764,-0.285,0.105
8.768,-0.290,0.080
8.772,-0.285,0.060
8.776,-0.285,0.065
8.780,-0.290,0.080
8.784,-0.285,0.085
8.788,-0.285,0.105
8.792,-0.280,0.100
8.796,-0.290,0.090
8.800,-0.290,0.085
8.804,-0.285,0.070
8.808,-0.290,0.080
8.812,-0.280,0.080
8.816,-0.275,0.095
8.820,-0.275,0.105
8.824,-0.275,0.090
8.828,-0.280,0.090
8.832,-0.280,0.080
8.836,-0.300,0.075
8.840,-0.285,0.085
8.844,-0.295,0.090
8.848,-0.275,0.100
8.852,-0.260,0.120
8.856,-0.245,0.120
8.860,-0.265,0.110
8.864,-0.275,0.100
8.868,-0.295,0.100
8.872,-0.300,0.095
8.876,-0.295,0.090
8.880,-0.290,0.115
8.884,-0.285,0.130
8.888,-0.255,0.135
8.892,-0.250,0.115
8.896,-0.265,0.115
8.900,-0.270,0.105
8.904,-0.290,0.075
8.908,-0.295,0.065
8.912,-0.295,0.070
8.916,-0.275,0.090
8.920,-0.265,0.105
8.924,-0.265,0.110
8.928,-0.265,0.105
8.932,-0.270,0.095
8.936,-0.275,0.080
8.940,-0.280,0.065
8.944,-0.275,0.075
8.948,-0.275,0.085
8.952,-0.265,0.110
8.956,-0.265,0.130
8.960,-0.265,0.125
8.964,-0.270,0.110
8.968,-0.275,0.095
8.972,-0.270,0.090
8.976,-0.280,0.100
8.980,-0.280,0.110
8.984,-0.270,0.115
8.988,-0.245,0.115
8.992,-0.245,0.105
8.996,-0.250,0.095
9.000,-0.260,0.090
9.004,-0.285,0.085
9.008,-0.290,0.085
9.012,-0.280,0.090
9.016,-0.270,0.095
9.020,-0.255,0.125
9.024,-0.250,0.120
9.028,-0.245,0.110
9.032,-0.250,0.105
9.036,-0.260,0.095
9.040,-0.260,0.100
9.044,-0.280,0.095
9.048,-0.290,0.110
9.052,-0.275,0.125
9.056,-0.260,0.150
9.060,-0.240,0.135
9.064,-0.245,0.130
9.068,-0.250,0.110
9.072,-0.265,0.095
9.076,-0.275,0.090
9.080,-0.275,0.105
9.084,-0.265,0.115
9.088,-0.250,0.135
9.092,-0.245,0.130
9.096,-0.250,0.120
9.100,-0.255,0.115
9.104,-0.265,0.100
9.108,-0.280,0.095
9.112,-0.270,0.115
9.116,-0.255,0.120
9.120,-0.245,0.120
9.124,-0.240,0.115
9.128,-0.250,0.105
9.132,-0.240,0.105
9.136,-0.255,0.110
9.140,-0.255,0.100
9.144,-0.265,0.110
9.148,-0.265,0.120
9.152,-0.260,0.120
9.156,-0.245,0.125
9.160,-0.235,0.125
9.164,-0.235,0.125
9.168,-0.235,0.110
9.172,-0.245,0.110
9.176,-0.250,0.105
9.180,-0.250,0.115
9.184,-0.245,0.125
9.188,-0.240,0.125
9.192,-0.250,0.125
9.196,-0.250,0.125
9.200,-0.245,0.120
9.204,-0.245,0.110
9.208,-0.250,0.105
9.212,-0.245,0.110
9.216,-0.245,0.120
9.220,-0.240,0.130
9.224,-0.240,0.120
9.228,-0.250,0.115
9.232,-0.250,0.105
9.236,-0.260,0.105
9.240,-0.265,0.105
9.244,-0.270,0.100
9.248,-0.260,0.115
9.252,-0.260,0.110
9.256,-0.245,0.125
9.260,-0.245,0.130
9.264,-0.250,0.130
9.268,-0.245,0.110
9.272,-0.255,0.085
9.276,-0.265,0.085
9.280,-0.265,0.100
9.284,-0.260,0.105
9.288,-0.250,0.130
9.292,-0.235,0.135
9.296,-0.230,0.115
9.300,-0.235,0.105
9.304,-0.235,0.100
9.308,-0.255,0.105
9.312,-0.265,0.120
9.316,-0.255,0.115
9.320,-0.245,0.135
9.324,-0.240,0.135
9.328,-0.240,0.135
9.332,-0.245,0.125
9.336,-0.250,0.115
9.340,-0.255,0.105
9.344,-0.255,0.105
9.348,-0.245,0.110
9.352,-0.230,0.120
9.356,-0.225,0.130
9.360,-0.220,0.120
9.364,-0.230,0.110
9.368,-0.240,0.095
9.372,-0.245,0.100
9.376,-0.255,0.115
9.380,-0.260,0.125
9.384,-0.240,0.135
9.388,-0.235,0.135
9.392,-0.220,0.140
9.396,-0.225,0.130
9.400,-0.225,0.125
9.404,-0.240,0.125
9.408,-0.245,0.115
9.412,-0.260,0.120
9.416,-0.240,0.120
9.420,-0.245,0.125
9.424,-0.240,0.125
9.428,-0.250,0.115
9.432,-0.240,0.120
9.436,-0.245,0.110
9.440,-0.235,0.115
9.444,-0.235,0.130
9.448,-0.230,0.140
9.452,-0.220,0.145
9.456,-0.215,0.130
9.460,-0.215,0.125
9.464,-0.225,0.125
9.468,-0.225,0.120
9.472,-0.235,0.115
9.476,-0.260,0.115
9.480,-0.245,0.130
9.484,-0.240,0.130
9.488,-0.230,0.160
9.492,-0.220,0.155
9.496,-0.225,0.140
9.500,-0.225,0.130
9.504,-0.250,0.105
9.508,-0.250,0.100
9.512,-0.250,0.110
9.516,-0.235,0.120
9.520,-0.230,0.130
9.524,-0.225,0.140
9.528,-0.235,0.135
9.532,-0.240,0.130
9.536,-0.245,0.125
9.540,-0.250,0.110
9.544,-0.250,0.120
9.548,-0.250,0.130
9.552,-0.240,0.145
9.556,-0.230,0.150
9.560,-0.225,0.135
9.564,-0.225,0.130
9.568,-0.230,0.120
9.572,-0.235,0.125
9.576,-0.245,0.135
9.580,-0.245,0.150
9.584,-0.240,0.160
9.588,-0.220,0.155
9.592,-0.220,0.165
9.596,-0.230,0.155
9.600,-0.235,0.150
9.604,-0.240,0.120
9.608,-0.230,0.110
9.612,-0.240,0.135
9.616,-0.235,0.160
9.620,-0.230,0.170
9.624,-0.225,0.170
9.628,-0.225,0.155
9.632,-0.220,0.135
9.636,-0.220,0.140
9.640,-0.225,0.125
9.644,-0.230,0.140
9.648,-0.245,0.155
9.652,-0.240,0.170
9.656,-0.220,0.165
9.660,-0.215,0.165
9.664,-0.220,0.160
9.668,-0.225,0.165
9.672,-0.230,0.150
9.676,-0.240,0.140
9.680,-0.225,0.150
9.684,-0.205,0.155
9.688,-0.215,0.170
9.692,-0.200,0.175
9.696,-0.210,0.170
9.700,-0.215,0.165
9.704,-0.215,0.140
9.708,-0.225,0.130
9.712,-0.225,0.130
9.716,-0.215,0.150
9.720,-0.205,0.160
9.724,-0.185,0.175
9.728,-0.170,0.165
9.732,-0.155,0.175
9.736,-0.170,0.175
9.740,-0.175,0.160
9.744,-0.170,0.160
9.748,-0.165,0.175
9.752,-0.150,0.180
9.756,-0.125,0.185
9.760,-0.110,0.170
9.764,-0.115,0.160
9.768,-0.120,0.135
9.772,-0.125,0.120
9.776,-0.135,0.115
9.780,-0.145,0.125
9.784,-0.145,0.135
9.788,-0.140,0.140
9.792,-0.150,0.130
9.796,-0.150,0.130
9.800,-0.155,0.120
9.804,-0.170,0.125
9.808,-0.175,0.120
9.812,-0.170,0.130
9.816,-0.150,0.145
9.820,-0.145,0.160
9.824,-0.165,0.155
9.828,-0.185,0.155
9.832,-0.215,0.150
9.836,-0.220,0.135
9.840,-0.240,0.130
9.844,-0.245,0.140
9.848,-0.240,0.140
9.852,-0.220,0.165
9.856,-0.205,0.170
9.860,-0.225,0.170
9.864,-0.220,0.165
9.868,-0.220,0.155
9.872,-0.225,0.135
9.876,-0.235,0.130
9.880,-0.240,0.140
9.884,-0.230,0.140
9.888,-0.215,0.165
9.892,-0.215,0.165
9.896,-0.215,0.155
9.900,-0.205,0.150
9.904,-0.210,0.140
9.908,-0.210,0.145
9.912,-0.215,0.150
9.916,-0.200,0.155
9.920,-0.190,0.160
9.924,-0.180,0.170
9.928,-0.170,0.195
9.932,-0.140,0.200
9.936,-0.085,0.210
9.940,0.030,0.180
9.944,0.205,0.125
9.948,0.420,0.045
9.952,0.605,-0.045
9.956,0.730,-0.120
9.960,0.650,-0.200
9.964,0.370,-0.235
9.968,-0.040,-0.225
9.972,-0.375,-0.140
9.976,-0.535,0.010
9.980,-0.585,0.170
9.984,-0.570,0.295
9.988,-0.520,0.360
9.992,-0.465,0.395
9.996,-0.450,0.415
10.000,-0.440,0.410
10.004,-0.470,0.425
10.008,-0.480,0.465
10.012,-0.445,0.505
10.016,-0.395,0.550
10.020,-0.360,0.580
10.024,-0.345,0.620
10.028,-0.355,0.630
10.032,-0.390,0.600
10.036,-0.395,0.560
10.040,-0.380,0.475
10.044,-0.350,0.405
10.048,-0.315,0.335
10.052,-0.275,0.270
10.056,-0.240,0.200
10.060,-0.220,0.150
10.064,-0.215,0.125
10.068,-0.220,0.100
10.072,-0.225,0.105
10.076,-0.225,0.115
10.080,-0.215,0.120
10.084,-0.210,0.135
10.088,-0.205,0.135
10.092,-0.205,0.125
10.096,-0.200,0.115
10.100,-0.200,0.110
10.104,-0.200,0.110
10.108,-0.210,0.100
10.112,-0.205,0.095
10.116,-0.210,0.100
10.120,-0.200,0.120
10.124,-0.190,0.115
10.128,-0.175,0.125
10.132,-0.180,0.105
10.136,-0.190,0.100
10.140,-0.185,0.075
10.144,-0.190,0.085
10.148,-0.180,0.105
10.152,-0.185,0.105
10.156,-0.165,0.120
10.160,-0.165,0.100
10.164,-0.160,0.080
10.168,-0.160,0.055
10.172,-0.155,0.060
10.176,-0.160,0.050
10.180,-0.150,0.065
10.184,-0.135,0.060
10.188,-0.135,0.065
10.192,-0.090,0.070
10.196,-0.090,0.040
10.200,-0.080,0.035
10.204,-0.060,0.010
10.208,-0.070,0.000
10.212,-0.060,-0.005
10.216,-0.045,-0.005
10.220,-0.020,0.000
10.224,0.010,0.000
10.228,0.035,-0.015
10.232,0.040,-0.045
10.236,0.040,-0.065
10.240,0.045,-0.075
10.244,0.050,-0.070
10.248,0.065,-0.065
10.252,0.075,-0.065
10.256,0.085,-0.070
10.260,0.095,-0.070
10.264,0.095,-0.070
10.268,0.080,-0.095
10.272,0.075,-0.085
10.276,0.060,-0.060
10.280,0.050,-0.050
10.284,0.050,-0.035
10.288,0.045,0.000
10.292,0.040,0.000
10.296,0.030,-0.005
10.300,0.025,0.000
10.304,-0.020,0.020
10.308,-0.040,0.035
10.312,-0.045,0.060
10.316,-0.060,0.090
10.320,-0.060,0.105
10.324,-0.055,0.100
10.328,-0.075,0.110
10.332,-0.090,0.090
10.336,-0.120,0.085
10.340,-0.140,0.100
10.344,-0.150,0.100
10.348,-0.165,0.110
10.352,-0.165,0.115
10.356,-0.155,0.120
10.360,-0.160,0.120
10.364,-0.170,0.115
10.368,-0.180,0.105
10.372,-0.190,0.110
10.376,-0.200,0.110
10.380,-0.200,0.120
10.384,-0.205,0.135
10.388,-0.210,0.135
10.392,-0.210,0.130
10.396,-0.220,0.125
10.400,-0.210,0.115
10.404,-0.225,0.070
10.408,-0.235,0.065
10.412,-0.250,0.070
10.416,-0.250,0.080
10.420,-0.220,0.105
10.424,-0.205,0.100
10.428,-0.190,0.100
10.432,-0.195,0.085
10.436,-0.180,0.075
10.440,-0.170,0.090
10.444,-0.170,0.105
10.448,-0.145,0.110
10.452,-0.135,0.115
10.456,-0.125,0.130
10.460,-0.125,0.115
10.464,-0.140,0.100
10.468,-0.135,0.095
10.472,-0.145,0.080
10.476,-0.150,0.090
10.480,-0.145,0.090
10.484,-0.135,0.100
10.488,-0.125,0.115
10.492,-0.110,0.115
10.496,-0.130,0.105
10.500,-0.125,0.100
10.504,-0.130,0.090
10.508,-0.135,0.100
10.512,-0.145,0.120
10.516,-0.150,0.150
10.520,-0.150,0.150
10.524,-0.140,0.170
10.528,-0.135,0.155
10.532,-0.130,0.145
10.536,-0.140,0.140
10.540,-0.145,0.135
10.544,-0.160,0.130
10.548,-0.165,0.125
10.552,-0.165,0.135
10.556,-0.165,0.165
10.560,-0.155,0.170
10.564,-0.160,0.155
10.568,-0.175,0.150
10.572,-0.185,0.140
10.576,-0.180,0.135
10.580,-0.170,0.140
10.584,-0.160,0.140
10.588,-0.145,0.140
10.592,-0.135,0.135
10.596,-0.135,0.145
10.600,-0.125,0.140
10.604,-0.155,0.145
10.608,-0.175,0.140
10.612,-0.200,0.130
10.616,-0.185,0.145
10.620,-0.160,0.150
10.624,-0.140,0.165
10.628,-0.130,0.165
10.632,-0.140,0.145
10.636,-0.155,0.130
10.640,-0.165,0.120
10.644,-0.155,0.140
10.648,-0.115,0.175
10.652,-0.015,0.190
10.656,0.160,0.185
10.660,0.365,0.080
10.664,0.550,-0.060
10.668,0.645,-0.195
10.672,0.575,-0.310
10.676,0.280,-0.355
10.680,-0.105,-0.290
10.684,-0.410,-0.170
10.688,-0.535,0.000
10.692,-0.540,0.165
10.696,-0.495,0.280
10.700,-0.475,0.310
10.704,-0.390,0.350
10.708,-0.370,0.350
10.712,-0.380,0.350
10.716,-0.410,0.385
10.720,-0.435,0.440
10.724,-0.400,0.480
10.728,-0.350,0.515
10.732,-0.305,0.535
10.736,-0.300,0.550
10.740,-0.315,0.570
10.744,-0.355,0.585
10.748,-0.365,0.585
10.752,-0.340,0.555
10.756,-0.315,0.500
10.760,-0.285,0.405
10.764,-0.255,0.310
10.768,-0.230,0.215
10.772,-0.190,0.145
10.776,-0.170,0.105
10.780,-0.160,0.085
10.784,-0.165,0.075
10.788,-0.170,0.090
10.792,-0.170,0.080
10.796,-0.180,0.070
10.800,-0.175,0.065
10.804,-0.175,0.045
10.808,-0.165,0.035
10.812,-0.160,0.030
10.816,-0.165,0.050
10.820,-0.170,0.065
10.824,-0.150,0.070
10.828,-0.150,0.065
10.832,-0.140,0.040
10.836,-0.145,0.025
10.840,-0.140,0.000
10.844,-0.145,0.005
10.848,-0.140,0.020
10.852,-0.130,0.035
10.856,-0.115,0.035
10.860,-0.105,0.030
10.864,-0.095,0.005
10.868,-0.090,-0.015
10.872,-0.105,-0.020
10.876,-0.110,-0.020
10.880,-0.100,-0.015
10.884,-0.060,-0.020
10.888,-0.035,-0.015
10.892,-0.010,-0.020
10.896,-0.005,-0.035
10.900,0.000,-0.040
10.904,0.005,-0.060
10.908,0.025,-0.065
10.912,0.045,-0.065
10.916,0.055,-0.050
10.920,0.085,-0.045
10.924,0.080,-0.070
10.928,0.105,-0.090
10.932,0.110,-0.125
10.936,0.130,-0.135
10.940,0.145,-0.140
10.944,0.150,-0.130
10.948,0.165,-0.140
10.952,0.175,-0.135
10.956,0.185,-0.140
10.960,0.190,-0.135
10.964,0.175,-0.140
10.968,0.170,-0.145
10.972,0.150,-0.160
10.976,0.145,-0.145
10.980,0.130,-0.120
10.984,0.110,-0.085
10.988,0.095,-0.050
10.992,0.090,-0.020
10.996,0.060,-0.015
11.000,0.050,-0.015
11.004,0.000,-0.005
11.008,-0.040,0.010
11.012,-0.060,0.035
11.016,-0.080,0.055
11.020,-0.075,0.055
11.024,-0.085,0.075
11.028,-0.100,0.080
11.032,-0.120,0.105
11.036,-0.135,0.105
11.040,-0.160,0.095
11.044,-0.165,0.090
11.048,-0.175,0.110
11.052,-0.190,0.125
11.056,-0.190,0.150
11.060,-0.180,0.150
11.064,-0.185,0.130
11.068,-0.195,0.110
11.072,-0.195,0.100
11.076,-0.200,0.105
11.080,-0.205,0.115
11.084,-0.200,0.110
11.088,-0.195,0.115
11.092,-0.200,0.120
11.096,-0.195,0.115
11.100,-0.190,0.120
11.104,-0.190,0.110
11.108,-0.200,0.095
11.112,-0.200,0.105
11.116,-0.185,0.095
11.120,-0.175,0.105
11.124,-0.170,0.105
11.128,-0.175,0.110
11.132,-0.190,0.100
11.136,-0.200,0.085
11.140,-0.210,0.085
11.144,-0.215,0.080
11.148,-0.220,0.080
11.152,-0.220,0.075
11.156,-0.215,0.080
11.160,-0.215,0.070
11.164,-0.225,0.040
11.168,-0.225,0.020
11.172,-0.215,0.020
11.176,-0.225,0.025
11.180,-0.215,0.060
11.184,-0.220,0.070
11.188,-0.200,0.075
11.192,-0.205,0.065
11.196,-0.200,0.075
11.200,-0.205,0.075
11.204,-0.180,0.065
11.208,-0.185,0.070
11.212,-0.180,0.075
11.216,-0.180,0.095
11.220,-0.180,0.100
11.224,-0.175,0.100
11.228,-0.185,0.085
11.232,-0.195,0.075
11.236,-0.205,0.055
11.240,-0.220,0.050
11.244,-0.230,0.055
11.248,-0.230,0.075
11.252,-0.220,0.090
11.256,-0.205,0.105
11.260,-0.185,0.115
11.264,-0.175,0.120
11.268,-0.165,0.120
11.272,-0.185,0.105
11.276,-0.205,0.110
11.280,-0.210,0.110
11.284,-0.205,0.135
11.288,-0.190,0.140
11.292,-0.185,0.135
11.296,-0.190,0.120
11.300,-0.200,0.115
11.304,-0.200,0.100
11.308,-0.205,0.105
11.312,-0.205,0.110
11.316,-0.205,0.120
11.320,-0.195,0.130
11.324,-0.185,0.135
11.328,-0.180,0.135
11.332,-0.185,0.120
11.336,-0.195,0.115
11.340,-0.215,0.105
11.344,-0.225,0.090
11.348,-0.195,0.100
11.352,-0.185,0.115
11.356,-0.170,0.135
11.360,-0.165,0.145
11.364,-0.170,0.140
11.368,-0.170,0.120
11.372,-0.180,0.100
11.376,-0.180,0.095
11.380,-0.180,0.100
11.384,-0.160,0.135
11.388,-0.125,0.175
11.392,-0.080,0.195
11.396,-0.040,0.200
11.400,-0.010,0.195
11.404,0.200,0.120
11.408,0.360,0.040
11.412,0.520,-0.055
11.416,0.640,-0.140
11.420,0.600,-0.215
11.424,0.320,-0.250
11.428,-0.090,-0.240
11.432,-0.420,-0.140
11.436,-0.590,0.015
11.440,-0.625,0.185
11.444,-0.555,0.305
11.448,-0.465,0.375
11.452,-0.400,0.400
11.456,-0.375,0.400
11.460,-0.395,0.405
11.464,-0.415,0.435
11.468,-0.385,0.460
11.472,-0.330,0.480
11.476,-0.305,0.505
11.480,-0.300,0.530
11.484,-0.320,0.560
11.488,-0.340,0.585
11.492,-0.360,0.560
11.496,-0.350,0.505
11.500,-0.340,0.485
11.504,-0.310,0.365
11.508,-0.285,0.285
11.512,-0.250,0.200
11.516,-0.215,0.150
11.520,-0.185,0.100
11.524,-0.160,0.095
11.528,-0.165,0.090
11.532,-0.165,0.085
11.536,-0.175,0.080
11.540,-0.180,0.065
11.544,-0.180,0.060
11.548,-0.185,0.060
11.552,-0.170,0.060
11.556,-0.150,0.075
11.560,-0.155,0.060
11.564,-0.170,0.055
11.568,-0.175,0.050
11.572,-0.170,0.045
11.576,-0.170,0.035
11.580,-0.160,0.035
11.584,-0.145,0.025
11.588,-0.140,0.035
11.592,-0.135,0.030
11.596,-0.135,0.030
11.600,-0.135,0.035
11.604,-0.140,0.035
11.608,-0.140,0.035
11.612,-0.130,0.025
11.616,-0.140,0.030
11.620,-0.110,0.035
11.624,-0.110,0.035
11.628,-0.105,0.020
11.632,-0.100,0.005
11.636,-0.100,-0.005
11.640,-0.090,-0.010
11.644,-0.070,-0.010
11.648,-0.055,-0.030
11.652,-0.045,-0.045
11.656,-0.010,-0.050
11.660,0.000,-0.040
11.664,0.015,-0.040
11.668,0.015,-0.070
11.672,0.025,-0.100
11.676,0.035,-0.125
11.680,0.060,-0.135
11.684,0.085,-0.130
11.688,0.095,-0.120
11.692,0.115,-0.120
11.696,0.125,-0.135
11.700,0.120,-0.130
11.704,0.125,-0.165
11.708,0.115,-0.165
11.712,0.120,-0.150
11.716,0.130,-0.130
11.720,0.130,-0.110
11.724,0.110,-0.090
11.728,0.100,-0.110
11.732,0.080,-0.110
11.736,0.080,-0.100
11.740,0.050,-0.090
11.744,0.035,-0.070
11.748,0.015,-0.030
11.752,-0.005,0.010
11.756,-0.035,0.035
11.760,-0.060,0.045
11.764,-0.090,0.045
11.768,-0.095,0.025
11.772,-0.110,0.020
11.776,-0.125,0.040
11.780,-0.140,0.070
11.784,-0.150,0.100
11.788,-0.155,0.115
11.792,-0.150,0.110
11.796,-0.150,0.080
11.800,-0.150,0.075
11.804,-0.165,0.055
11.808,-0.185,0.055
11.812,-0.190,0.055
11.816,-0.200,0.060
11.820,-0.200,0.075
11.824,-0.200,0.105
11.828,-0.210,0.125
11.832,-0.200,0.105
11.836,-0.210,0.075
11.840,-0.215,0.055
11.844,-0.220,0.065
11.848,-0.220,0.085
11.852,-0.210,0.085
11.856,-0.195,0.080
11.860,-0.205,0.085
11.864,-0.210,0.115
11.868,-0.220,0.115
11.872,-0.215,0.115
11.876,-0.205,0.080
11.880,-0.215,0.060
11.884,-0.220,0.055
11.888,-0.220,0.075
11.892,-0.205,0.050
11.896,-0.210,0.040
11.900,-0.205,0.040
11.904,-0.220,0.035
11.908,-0.230,0.020
11.912,-0.225,-0.005
11.916,-0.200,-0.020
11.920,-0.190,-0.010
11.924,-0.175,0.010
11.928,-0.170,0.005
11.932,-0.170,-0.025
11.936,-0.175,-0.030
11.940,-0.180,-0.035
11.944,-0.175,-0.010
11.948,-0.160,0.025
11.952,-0.155,0.030
11.956,-0.155,0.035
11.960,-0.165,0.030
11.964,-0.175,0.025
11.968,-0.175,0.015
11.972,-0.175,0.000
11.976,-0.185,-0.025
11.980,-0.170,-0.020
11.984,-0.170,0.000
11.988,-0.180,0.035
11.992,-0.175,0.050
11.996,-0.175,0.030
12.000,-0.165,0.020
12.004,-0.155,-0.025
12.008,-0.170,-0.015
12.012,-0.175,0.020
12.016,-0.190,0.045
12.020,-0.185,0.060
12.024,-0.175,0.070
12.028,-0.165,0.060
12.032,-0.170,0.060
12.036,-0.175,0.050
12.040,-0.195,0.035
12.044,-0.205,0.030
12.048,-0.200,0.035
12.052,-0.195,0.045
12.056,-0.180,0.030
12.060,-0.165,0.010
12.064,-0.165,0.010
12.068,-0.175,0.015
12.072,-0.170,0.025
12.076,-0.180,0.015
12.080,-0.185,0.010
12.084,-0.185,0.005
12.088,-0.170,0.020
12.092,-0.160,0.030
12.096,-0.165,0.040
12.100,-0.155,0.045
12.104,-0.160,0.035
12.108,-0.160,0.025
12.112,-0.160,0.030
12.116,-0.155,0.020
12.120,-0.130,0.035
12.124,-0.105,0.065
12.128,-0.070,0.100
12.132,-0.020,0.095
12.136,0.070,0.095
12.140,0.215,0.025
12.144,0.400,-0.050
12.148,0.580,-0.130
12.152,0.670,-0.195
12.156,0.615,-0.235
12.160,0.305,-0.285
12.164,-0.105,-0.345
12.168,-0.445,-0.295
12.172,-0.630,-0.140
12.176,-0.625,0.070
12.180,-0.540,0.225
12.184,-0.445,0.280
12.188,-0.395,0.290
12.192,-0.375,0.255
12.196,-0.400,0.245
12.200,-0.410,0.255
12.204,-0.395,0.320
12.208,-0.355,0.355
12.212,-0.315,0.395
12.216,-0.300,0.425
12.220,-0.300,0.460
12.224,-0.315,0.465
12.228,-0.325,0.440
12.232,-0.330,0.375
12.236,-0.320,0.295
12.240,-0.285,0.205
12.244,-0.225,0.090
12.248,-0.175,0.010
12.252,-0.150,-0.030
12.256,-0.155,-0.055
12.260,-0.160,-0.050
12.264,-0.175,-0.050
12.268,-0.175,-0.055
12.272,-0.185,-0.050
12.276,-0.170,-0.075
12.280,-0.165,-0.075
12.284,-0.155,-0.065
12.288,-0.140,-0.065
12.292,-0.125,-0.070
12.296,-0.135,-0.055
12.300,-0.140,-0.060
12.304,-0.150,-0.085
12.308,-0.165,-0.090
12.312,-0.155,-0.085
12.316,-0.160,-0.060
12.320,-0.140,-0.050
12.324,-0.130,-0.055
12.328,-0.125,-0.055
12.332,-0.130,-0.080
12.336,-0.135,-0.090
12.340,-0.125,-0.110
12.344,-0.115,-0.125
12.348,-0.110,-0.125
12.352,-0.095,-0.115
12.356,-0.095,-0.105
12.360,-0.085,-0.085
12.364,-0.080,-0.110
12.368,-0.075,-0.095
12.372,-0.065,-0.105
12.376,-0.065,-0.120
12.380,-0.045,-0.150
12.384,-0.015,-0.165
12.388,0.010,-0.130
12.392,0.035,-0.125
12.396,0.050,-0.155
12.400,0.055,-0.175
12.404,0.065,-0.260
12.408,0.070,-0.260
12.412,0.095,-0.235
12.416,0.110,-0.205
12.420,0.135,-0.210
12.424,0.150,-0.240
12.428,0.165,-0.255
12.432,0.180,-0.265
12.436,0.170,-0.260
12.440,0.150,-0.250
12.444,0.135,-0.255
12.448,0.135,-0.225
12.452,0.135,-0.185
12.456,0.135,-0.150
12.460,0.115,-0.140
12.464,0.085,-0.125
12.468,0.045,-0.140
12.472,0.010,-0.125
12.476,-0.010,-0.090
12.480,-0.030,-0.065
12.484,-0.045,-0.040
12.488,-0.060,-0.020
12.492,-0.070,-0.015
12.496,-0.090,-0.010
12.500,-0.095,-0.015
12.504,-0.120,-0.010
12.508,-0.140,0.005
12.512,-0.150,0.020
12.516,-0.155,0.040
12.520,-0.150,0.055
12.524,-0.150,0.045
12.528,-0.165,0.035
12.532,-0.160,0.035
12.536,-0.180,0.020
12.540,-0.190,0.020
12.544,-0.195,0.025
12.548,-0.190,0.025
12.552,-0.190,0.040
12.556,-0.180,0.055
12.560,-0.170,0.045
12.564,-0.160,0.015
12.568,-0.160,0.015
12.572,-0.180,0.030
12.576,-0.180,0.040
12.580,-0.185,0.040
12.584,-0.185,0.020
12.588,-0.170,0.035
12.592,-0.155,0.050
12.596,-0.155,0.060
12.600,-0.150,0.060
12.604,-0.165,0.045
12.608,-0.160,0.040
12.612,-0.165,0.040
12.616,-0.160,0.065
12.620,-0.150,0.075
12.624,-0.145,0.080
12.628,-0.150,0.070
12.632,-0.140,0.040
12.636,-0.145,0.045
12.640,-0.150,0.070
12.644,-0.155,0.100
12.648,-0.160,0.120
12.652,-0.165,0.095
12.656,-0.145,0.075
12.660,-0.145,0.045
12.664,-0.140,0.040
12.668,-0.145,0.055
12.672,-0.160,0.060
12.676,-0.165,0.060
12.680,-0.170,0.075
12.684,-0.165,0.065
12.688,-0.165,0.090
12.692,-0.140,0.080
12.696,-0.150,0.070
12.700,-0.155,0.060
12.704,-0.180,0.050
12.708,-0.190,0.050
12.712,-0.190,0.065
12.716,-0.190,0.065
12.720,-0.175,0.075
12.724,-0.175,0.080
12.728,-0.165,0.080
12.732,-0.170,0.085
12.736,-0.175,0.070
12.740,-0.190,0.060
12.744,-0.200,0.070
12.748,-0.195,0.085
12.752,-0.180,0.100
12.756,-0.165,0.095
12.760,-0.165,0.080
12.764,-0.170,0.075
12.768,-0.185,0.070
12.772,-0.185,0.070
12.776,-0.200,0.065
12.780,-0.205,0.075
12.784,-0.190,0.095
12.788,-0.175,0.115
12.792,-0.175,0.115
12.796,-0.190,0.115
12.800,-0.185,0.105
12.804,-0.205,0.065
12.808,-0.215,0.055
12.812,-0.200,0.055
12.816,-0.190,0.060
12.820,-0.180,0.090
12.824,-0.185,0.095
12.828,-0.175,0.080
12.832,-0.170,0.075
12.836,-0.170,0.070
12.840,-0.190,0.070
12.844,-0.200,0.085
12.848,-0.200,0.100
12.852,-0.195,0.100
12.856,-0.180,0.090
12.860,-0.175,0.065
12.864,-0.185,0.070
12.868,-0.185,0.075
12.872,-0.190,0.085
12.876,-0.190,0.085
12.880,-0.185,0.100
12.884,-0.190,0.120
12.888,-0.185,0.125
12.892,-0.185,0.110
12.896,-0.175,0.105
12.900,-0.175,0.100
12.904,-0.185,0.085
12.908,-0.195,0.090
12.912,-0.200,0.115
12.916,-0.195,0.125
12.920,-0.180,0.095
12.924,-0.175,0.060
12.928,-0.170,0.040
12.932,-0.175,0.040
12.936,-0.185,0.050
12.940,-0.195,0.065
12.944,-0.210,0.090
12.948,-0.200,0.110
12.952,-0.200,0.125
12.956,-0.180,0.130
12.960,-0.175,0.130
12.964,-0.185,0.105
12.968,-0.190,0.075
12.972,-0.195,0.065
12.976,-0.205,0.065
12.980,-0.200,0.080
12.984,-0.195,0.095
12.988,-0.180,0.110
12.992,-0.175,0.115
12.996,-0.175,0.120
13.000,-0.180,0.125
13.004,-0.190,0.100
13.008,-0.205,0.075
13.012,-0.195,0.070
13.016,-0.195,0.070
13.020,-0.175,0.095
13.024,-0.180,0.095
13.028,-0.175,0.110
13.032,-0.185,0.105
13.036,-0.205,0.095
13.040,-0.215,0.070
13.044,-0.220,0.065
13.048,-0.205,0.090
13.052,-0.195,0.105
13.056,-0.180,0.120
13.060,-0.170,0.130
13.064,-0.175,0.105
13.068,-0.190,0.105
13.072,-0.205,0.085
13.076,-0.205,0.100
13.080,-0.195,0.120
13.084,-0.205,0.125
13.088,-0.185,0.135
13.092,-0.180,0.125
13.096,-0.180,0.115
13.100,-0.185,0.110
13.104,-0.185,0.095
13.108,-0.190,0.100
13.112,-0.195,0.115
13.116,-0.185,0.140
13.120,-0.180,0.140
13.124,-0.175,0.140
13.128,-0.190,0.110
13.132,-0.195,0.095
13.136,-0.195,0.090
13.140,-0.190,0.115
13.144,-0.195,0.125
13.148,-0.185,0.130
13.152,-0.185,0.110
13.156,-0.175,0.135
13.160,-0.170,0.130
13.164,-0.170,0.135
13.168,-0.180,0.120
13.172,-0.185,0.125
13.176,-0.195,0.130
13.180,-0.190,0.135
13.184,-0.190,0.145
13.188,-0.180,0.150
13.192,-0.170,0.140
13.196,-0.165,0.120
13.200,-0.170,0.110
13.204,-0.185,0.100
13.208,-0.205,0.105
13.212,-0.190,0.130
13.216,-0.185,0.150
13.220,-0.180,0.145
13.224,-0.170,0.160
13.228,-0.170,0.150
13.232,-0.165,0.115
13.236,-0.175,0.095
13.240,-0.190,0.095
13.244,-0.195,0.100
13.248,-0.185,0.130
13.252,-0.185,0.145
13.256,-0.170,0.150
13.260,-0.155,0.150
13.264,-0.165,0.155
13.268,-0.165,0.135
13.272,-0.175,0.125
13.276,-0.190,0.125
13.280,-0.185,0.130
13.284,-0.180,0.125
13.288,-0.160,0.120
13.292,-0.150,0.120
13.296,-0.155,0.130
13.300,-0.160,0.135
13.304,-0.160,0.135
13.308,-0.185,0.135
13.312,-0.185,0.145
13.316,-0.175,0.130
13.320,-0.170,0.130
13.324,-0.160,0.135
13.328,-0.165,0.145
13.332,-0.160,0.140
13.336,-0.165,0.135
13.340,-0.165,0.115
13.344,-0.180,0.125
13.348,-0.170,0.135
13.352,-0.165,0.150
13.356,-0.170,0.135
13.360,-0.160,0.130
13.364,-0.150,0.130
13.368,-0.160,0.115
13.372,-0.165,0.115
13.376,-0.170,0.105
13.380,-0.175,0.130
13.384,-0.160,0.140
13.388,-0.150,0.150
13.392,-0.140,0.145
13.396,-0.140,0.140
13.400,-0.140,0.135
13.404,-0.160,0.150
13.408,-0.170,0.145
13.412,-0.170,0.135
13.416,-0.155,0.110
13.420,-0.150,0.115
13.424,-0.140,0.115
13.428,-0.155,0.115
13.432,-0.175,0.120
13.436,-0.180,0.120
13.440,-0.195,0.110
13.444,-0.200,0.130
13.448,-0.190,0.135
13.452,-0.165,0.140
13.456,-0.145,0.155
13.460,-0.150,0.130
13.464,-0.160,0.110
13.468,-0.175,0.105
13.472,-0.195,0.100
13.476,-0.195,0.105
13.480,-0.180,0.110
13.484,-0.165,0.125
13.488,-0.150,0.120
13.492,-0.150,0.120
13.496,-0.165,0.110
13.500,-0.170,0.110
13.504,-0.180,0.090
13.508,-0.185,0.075
13.512,-0.190,0.065
13.516,-0.185,0.075
13.520,-0.165,0.095
13.524,-0.160,0.085
13.528,-0.170,0.075
13.532,-0.160,0.070
13.536,-0.165,0.075
13.540,-0.170,0.085
13.544,-0.180,0.095
13.548,-0.180,0.090
13.552,-0.165,0.100
13.556,-0.145,0.085
13.560,-0.145,0.090
13.564,-0.150,0.085
13.568,-0.160,0.085
13.572,-0.170,0.090
13.576,-0.180,0.100
13.580,-0.170,0.115
13.584,-0.160,0.130
13.588,-0.160,0.145
13.592,-0.145,0.145
13.596,-0.150,0.140
13.600,-0.145,0.145
13.604,-0.130,0.120
13.608,-0.145,0.125
13.612,-0.150,0.120
13.616,-0.160,0.130
13.620,-0.160,0.145
13.624,-0.140,0.155
13.628,-0.140,0.165
13.632,-0.135,0.145
13.636,-0.145,0.135
13.640,-0.165,0.120
13.644,-0.170,0.120
13.648,-0.155,0.140
13.652,-0.150,0.150
13.656,-0.125,0.150
13.660,-0.125,0.135
13.664,-0.125,0.140
13.668,-0.125,0.135
13.672,-0.130,0.135
13.676,-0.130,0.120
13.680,-0.135,0.125
13.684,-0.130,0.120
13.688,-0.135,0.125
13.692,-0.135,0.130
13.696,-0.130,0.145
13.700,-0.135,0.145
13.704,-0.135,0.120
13.708,-0.145,0.115
13.712,-0.140,0.135
13.716,-0.140,0.145
13.720,-0.135,0.140
13.724,-0.120,0.145
13.728,-0.125,0.120
13.732,-0.125,0.110
13.736,-0.140,0.100
13.740,-0.135,0.125
13.744,-0.145,0.130
13.748,-0.160,0.150
13.752,-0.145,0.150
13.756,-0.140,0.160
13.760,-0.130,0.155
13.764,-0.130,0.150
13.768,-0.130,0.135
13.772,-0.130,0.145
13.776,-0.135,0.145
13.780,-0.140,0.140
13.784,-0.145,0.150
13.788,-0.140,0.145
13.792,-0.125,0.130
13.796,-0.115,0.140
13.800,-0.110,0.135
13.804,-0.140,0.120
13.808,-0.165,0.115
13.812,-0.150,0.110
13.816,-0.140,0.125
13.820,-0.125,0.160
13.824,-0.130,0.170
13.828,-0.135,0.140
13.832,-0.115,0.120
13.836,-0.130,0.085
13.840,-0.145,0.070
13.844,-0.140,0.070
13.848,-0.140,0.110
13.852,-0.140,0.140
13.856,-0.145,0.150
13.860,-0.125,0.120
13.864,-0.140,0.090
13.868,-0.145,0.085
13.872,-0.150,0.085
13.876,-0.165,0.090
13.880,-0.160,0.100
13.884,-0.135,0.125
13.888,-0.140,0.145
13.892,-0.130,0.150
13.896,-0.140,0.125
13.900,-0.130,0.115
13.904,-0.145,0.085
13.908,-0.150,0.085
13.912,-0.135,0.095
13.916,-0.145,0.115
13.920,-0.150,0.115
13.924,-0.140,0.130
13.928,-0.140,0.135
13.932,-0.150,0.130
13.936,-0.145,0.125
13.940,-0.170,0.130
13.944,-0.185,0.145
13.948,-0.195,0.155
13.952,-0.190,0.155
13.956,-0.155,0.165
13.960,-0.140,0.155
13.964,-0.125,0.135
13.968,-0.145,0.125
13.972,-0.175,0.115
13.976,-0.195,0.115
13.980,-0.190,0.105
13.984,-0.170,0.120
13.988,-0.165,0.140
13.992,-0.145,0.135
13.996,-0.170,0.110
14.000,-0.175,0.100
14.004,-0.190,0.090
14.008,-0.195,0.110
14.012,-0.175,0.120
14.016,-0.160,0.130
14.020,-0.150,0.145
14.024,-0.150,0.140
14.028,-0.155,0.125
14.032,-0.155,0.100
14.036,-0.160,0.100
14.040,-0.185,0.110
14.044,-0.180,0.125
14.048,-0.170,0.145
14.052,-0.165,0.145
14.056,-0.145,0.125
14.060,-0.145,0.100
14.064,-0.145,0.105
14.068,-0.155,0.115
14.072,-0.155,0.115
14.076,-0.170,0.110
14.080,-0.170,0.120
14.084,-0.160,0.120
14.088,-0.165,0.110
14.092,-0.155,0.125
14.096,-0.155,0.125
14.100,-0.155,0.120
14.104,-0.155,0.110
14.108,-0.165,0.110
14.112,-0.160,0.120
14.116,-0.160,0.130
14.120,-0.145,0.130
14.124,-0.130,0.120
14.128,-0.135,0.110
14.132,-0.140,0.090
14.136,-0.160,0.100
14.140,-0.170,0.105
14.144,-0.175,0.125
14.148,-0.155,0.135
14.152,-0.140,0.145
14.156,-0.120,0.140
14.160,-0.115,0.140
14.164,-0.135,0.125
14.168,-0.140,0.090
14.172,-0.150,0.060
14.176,-0.160,0.050
14.180,-0.160,0.075
14.184,-0.155,0.110
14.188,-0.135,0.135
14.192,-0.120,0.135
14.196,-0.125,0.110
14.200,-0.120,0.095
14.204,-0.150,0.080
14.208,-0.150,0.070
14.212,-0.150,0.090
14.216,-0.145,0.120
14.220,-0.125,0.125
14.224,-0.120,0.120
14.228,-0.135,0.110
14.232,-0.135,0.115
14.236,-0.135,0.105
14.240,-0.145,0.095
14.244,-0.140,0.100
14.248,-0.140,0.100
14.252,-0.135,0.105
14.256,-0.125,0.115
14.260,-0.125,0.115
14.264,-0.135,0.120
14.268,-0.140,0.105
14.272,-0.150,0.090
14.276,-0.145,0.095
14.280,-0.150,0.090
14.284,-0.150,0.100
14.288,-0.140,0.110
14.292,-0.125,0.120
14.296,-0.120,0.130
14.300,-0.110,0.130
14.304,-0.125,0.110
14.308,-0.140,0.110
14.312,-0.140,0.110
14.316,-0.145,0.120
14.320,-0.140,0.120
14.324,-0.130,0.140
14.328,-0.125,0.130
14.332,-0.130,0.125
14.336,-0.130,0.115
14.340,-0.135,0.105
14.344,-0.145,0.110
14.348,-0.140,0.125
14.352,-0.140,0.140
14.356,-0.135,0.160
14.360,-0.135,0.170
14.364,-0.135,0.175
14.368,-0.135,0.140
14.372,-0.145,0.100
14.376,-0.150,0.080
14.380,-0.150,0.080
14.384,-0.135,0.095
14.388,-0.125,0.110
14.392,-0.120,0.120
14.396,-0.125,0.125
14.400,-0.125,0.125
14.404,-0.135,0.100
14.408,-0.155,0.090
14.412,-0.155,0.090
14.416,-0.155,0.100
14.420,-0.145,0.120
14.424,-0.135,0.140
14.428,-0.125,0.150
14.432,-0.130,0.140
14.436,-0.140,0.120
14.440,-0.150,0.105
14.444,-0.145,0.105
14.448,-0.140,0.110
14.452,-0.135,0.115
14.456,-0.135,0.130
14.460,-0.130,0.140
14.464,-0.135,0.135
14.468,-0.145,0.135
14.472,-0.155,0.125
14.476,-0.160,0.130
14.480,-0.155,0.145
14.484,-0.145,0.135
14.488,-0.130,0.130
14.492,-0.120,0.140
14.496,-0.130,0.140
14.500,-0.135,0.135
14.504,-0.155,0.090
14.508,-0.145,0.090
14.512,-0.140,0.090
14.516,-0.150,0.105
14.520,-0.155,0.115
14.524,-0.140,0.130
14.528,-0.130,0.130
14.532,-0.120,0.120
14.536,-0.140,0.110
14.540,-0.140,0.100
14.544,-0.150,0.105
14.548,-0.165,0.110
14.552,-0.150,0.120
14.556,-0.130,0.140
14.560,-0.125,0.130
14.564,-0.135,0.115
14.568,-0.135,0.120
14.572,-0.140,0.105
14.576,-0.145,0.105
14.580,-0.160,0.110
14.584,-0.160,0.125
14.588,-0.145,0.140
14.592,-0.135,0.145
14.596,-0.130,0.135
14.600,-0.115,0.135
14.604,-0.130,0.115
14.608,-0.140,0.120
14.612,-0.130,0.125
14.616,-0.120,0.140
14.620,-0.090,0.155
14.624,-0.075,0.150
14.628,-0.065,0.150
14.632,-0.060,0.160
14.636,-0.075,0.165
14.640,-0.075,0.150
14.644,-0.080,0.145
14.648,-0.075,0.140
14.652,-0.055,0.145
14.656,-0.050,0.145
14.660,-0.045,0.135
14.664,-0.075,0.135
14.668,-0.065,0.115
14.672,-0.075,0.110
14.676,-0.085,0.125
14.680,-0.100,0.130
14.684,-0.115,0.130
14.688,-0.105,0.125
14.692,-0.090,0.110
14.696,-0.085,0.100
14.700,-0.090,0.105
14.704,-0.115,0.100
14.708,-0.110,0.115
14.712,-0.115,0.135
14.716,-0.140,0.140
14.720,-0.150,0.155
14.724,-0.170,0.170
14.728,-0.180,0.160
14.732,-0.175,0.155
14.736,-0.170,0.140
14.740,-0.160,0.150
14.744,-0.175,0.165
14.748,-0.170,0.180
14.752,-0.170,0.175
14.756,-0.170,0.150
14.760,-0.150,0.135
14.764,-0.160,0.135
14.768,-0.160,0.140
14.772,-0.170,0.135
14.776,-0.190,0.145
14.780,-0.180,0.140
14.784,-0.170,0.145
14.788,-0.155,0.175
14.792,-0.160,0.185
14.796,-0.155,0.185
14.800,-0.150,0.190
14.804,-0.145,0.185
14.808,-0.155,0.155
14.812,-0.145,0.130
14.816,-0.125,0.140
14.820,-0.060,0.165
14.824,0.035,0.205
14.828,0.185,0.205
14.832,0.370,0.140
14.836,0.580,0.025
14.840,0.735,-0.065
14.844,0.765,-0.165
14.848,0.555,-0.215
14.852,0.180,-0.230
14.856,-0.175,-0.160
14.860,-0.385,-0.035
14.864,-0.480,0.115
14.868,-0.505,0.255
14.872,-0.480,0.360
14.876,-0.440,0.405
14.880,-0.400,0.420
14.884,-0.390,0.430
14.888,-0.420,0.430
14.892,-0.415,0.450
14.896,-0.395,0.510
14.900,-0.380,0.540
14.904,-0.320,0.600
14.908,-0.325,0.625
14.912,-0.345,0.620
14.916,-0.355,0.605
14.920,-0.355,0.560
14.924,-0.335,0.505
14.928,-0.300,0.430
14.932,-0.255,0.335
14.936,-0.225,0.255
14.940,-0.205,0.195
14.944,-0.195,0.175
14.948,-0.180,0.150
14.952,-0.175,0.150
14.956,-0.165,0.150
14.960,-0.155,0.145
14.964,-0.160,0.145
14.968,-0.160,0.135
14.972,-0.175,0.140
14.976,-0.170,0.135
14.980,-0.170,0.135
14.984,-0.160,0.135
14.988,-0.160,0.125
14.992,-0.145,0.125
14.996,-0.150,0.115
15.000,-0.145,0.120
15.004,-0.150,0.120
15.008,-0.165,0.120
15.012,-0.165,0.120
15.016,-0.145,0.135
15.020,-0.140,0.130
15.024,-0.120,0.130
15.028,-0.110,0.115
15.032,-0.125,0.100
15.036,-0.120,0.085
15.040,-0.135,0.090
15.044,-0.150,0.090
15.048,-0.140,0.095
15.052,-0.135,0.095
15.056,-0.115,0.125
15.060,-0.095,0.120
15.064,-0.100,0.105
15.068,-0.095,0.100
15.072,-0.090,0.080
15.076,-0.085,0.065
15.080,-0.075,0.050
15.084,-0.065,0.035
15.088,-0.045,0.040
15.092,-0.025,0.035
15.096,-0.020,0.045
15.100,-0.010,0.040
15.104,0.005,0.020
15.108,0.010,0.000
15.112,0.040,-0.015
15.116,0.045,-0.015
15.120,0.060,-0.020
15.124,0.080,-0.010
15.128,0.100,-0.030
15.132,0.115,-0.030
15.136,0.120,-0.040
15.140,0.105,-0.055
15.144,0.110,-0.060
15.148,0.120,-0.070
15.152,0.115,-0.070
15.156,0.125,-0.050
15.160,0.135,-0.025
15.164,0.145,-0.010
15.168,0.130,-0.005
15.172,0.100,-0.005
15.176,0.085,0.015
15.180,0.070,0.035
15.184,0.050,0.050
15.188,0.040,0.080
15.192,0.040,0.090
15.196,0.030,0.100
15.200,0.015,0.105
15.204,-0.035,0.090
15.208,-0.050,0.105
15.212,-0.055,0.120
15.216,-0.070,0.140
15.220,-0.075,0.155
15.224,-0.085,0.180
15.228,-0.095,0.210
15.232,-0.100,0.195
15.236,-0.105,0.150
15.240,-0.115,0.105
15.244,-0.125,0.085
15.248,-0.125,0.115
15.252,-0.125,0.165
15.256,-0.125,0.195
15.260,-0.115,0.180
15.264,-0.110,0.145
15.268,-0.115,0.120
15.272,-0.130,0.105
15.276,-0.140,0.130
15.280,-0.145,0.135
15.284,-0.140,0.155
15.288,-0.130,0.150
15.292,-0.130,0.165
15.296,-0.125,0.175
15.300,-0.120,0.180
15.304,-0.135,0.125
15.308,-0.145,0.080
15.312,-0.150,0.085
15.316,-0.130,0.120
15.320,-0.135,0.145
15.324,-0.125,0.165
15.328,-0.115,0.150
15.332,-0.110,0.110
15.336,-0.105,0.060
15.340,-0.095,0.045
15.344,-0.105,0.075
15.348,-0.095,0.105
15.352,-0.095,0.140
15.356,-0.090,0.170
15.360,-0.100,0.155
15.364,-0.105,0.135
15.368,-0.115,0.120
15.372,-0.115,0.120
15.376,-0.110,0.095
15.380,-0.100,0.110
15.384,-0.100,0.140
15.388,-0.100,0.160
15.392,-0.110,0.150
15.396,-0.110,0.130
15.400,-0.105,0.120
15.404,-0.105,0.090
15.408,-0.120,0.085
15.412,-0.125,0.095
15.416,-0.135,0.095
15.420,-0.125,0.095
15.424,-0.115,0.115
15.428,-0.110,0.115
15.432,-0.105,0.125
15.436,-0.115,0.120
15.440,-0.140,0.095
15.444,-0.130,0.095
15.448,-0.135,0.110
15.452,-0.125,0.120
15.456,-0.125,0.135
15.460,-0.130,0.130
15.464,-0.125,0.110
15.468,-0.130,0.110
15.472,-0.125,0.095
15.476,-0.135,0.105
15.480,-0.135,0.105
15.484,-0.145,0.125
15.488,-0.130,0.135
15.492,-0.125,0.140
15.496,-0.110,0.130
15.500,-0.115,0.120
15.504,-0.135,0.120
15.508,-0.150,0.115
15.512,-0.155,0.130
15.516,-0.155,0.130
15.520,-0.145,0.140
15.524,-0.145,0.140
15.528,-0.140,0.145
15.532,-0.150,0.135
15.536,-0.145,0.135
15.540,-0.150,0.130
15.544,-0.155,0.120
15.548,-0.160,0.145
15.552,-0.135,0.155
15.556,-0.130,0.165
15.560,-0.130,0.170
15.564,-0.145,0.155
15.568,-0.160,0.130
15.572,-0.170,0.115
15.576,-0.170,0.125
15.580,-0.160,0.155
15.584,-0.160,0.175
15.588,-0.150,0.170
15.592,-0.140,0.150
15.596,-0.140,0.150
15.600,-0.145,0.140
15.604,-0.145,0.150
15.608,-0.150,0.130
15.612,-0.170,0.120
15.616,-0.165,0.120
15.620,-0.165,0.135
15.624,-0.155,0.150
15.628,-0.150,0.155
15.632,-0.155,0.165
15.636,-0.165,0.160
15.640,-0.170,0.160
15.644,-0.165,0.165
15.648,-0.155,0.165
15.652,-0.165,0.160
15.656,-0.155,0.170
15.660,-0.150,0.160
15.664,-0.150,0.130
15.668,-0.155,0.130
15.672,-0.170,0.135
15.676,-0.180,0.155
15.680,-0.165,0.180
15.684,-0.160,0.195
15.688,-0.150,0.175
15.692,-0.155,0.170
15.696,-0.155,0.155
15.700,-0.160,0.160
15.704,-0.170,0.170
15.708,-0.175,0.165
15.712,-0.175,0.165
15.716,-0.165,0.175
15.720,-0.155,0.175
15.724,-0.150,0.185
15.728,-0.160,0.180
15.732,-0.155,0.185
15.736,-0.160,0.175
15.740,-0.170,0.175
15.744,-0.180,0.190
15.748,-0.185,0.200
15.752,-0.175,0.210
15.756,-0.165,0.205
15.760,-0.145,0.195
15.764,-0.135,0.185
15.768,-0.140,0.190
15.772,-0.150,0.185
15.776,-0.165,0.165
15.780,-0.170,0.190
15.784,-0.170,0.200
15.788,-0.140,0.205
15.792,-0.130,0.205
15.796,-0.130,0.215
15.800,-0.135,0.215
15.804,-0.145,0.185
15.808,-0.150,0.180
15.812,-0.150,0.170
15.816,-0.145,0.175
15.820,-0.145,0.190
15.824,-0.125,0.200
15.828,-0.125,0.210
15.832,-0.135,0.195
15.836,-0.135,0.180
15.840,-0.135,0.170
15.844,-0.170,0.210
15.848,-0.180,0.240
15.852,-0.185,0.255
15.856,-0.165,0.265
15.860,-0.150,0.260
15.864,-0.145,0.260
15.868,-0.145,0.250
15.872,-0.160,0.240
15.876,-0.170,0.245
15.880,-0.180,0.255
15.884,-0.170,0.250
15.888,-0.150,0.215
15.892,-0.135,0.200
15.896,-0.135,0.210
15.900,-0.130,0.215
15.904,-0.145,0.225
15.908,-0.140,0.220
15.912,-0.150,0.230
15.916,-0.145,0.240
15.920,-0.145,0.255
15.924,-0.145,0.260
15.928,-0.140,0.240
15.932,-0.145,0.225
15.936,-0.155,0.215
15.940,-0.165,0.205
15.944,-0.170,0.220
15.948,-0.185,0.230
15.952,-0.175,0.235
15.956,-0.185,0.245
15.960,-0.180,0.235
15.964,-0.175,0.220
15.968,-0.170,0.230
15.972,-0.180,0.225
15.976,-0.185,0.230
15.980,-0.190,0.235
15.984,-0.185,0.235
15.988,-0.175,0.235
15.992,-0.185,0.240
15.996,-0.190,0.235
16.000,-0.185,0.230
16.004,-0.175,0.220
16.008,-0.165,0.220
16.012,-0.185,0.240
16.016,-0.175,0.240
16.020,-0.165,0.220
16.024,-0.165,0.195
16.028,-0.155,0.170
16.032,-0.160,0.180
16.036,-0.150,0.200
16.040,-0.160,0.220
16.044,-0.150,0.240
16.048,-0.135,0.255
16.052,-0.115,0.270
16.056,-0.110,0.290
16.060,-0.115,0.300
16.064,-0.130,0.300
16.068,-0.125,0.300
16.072,-0.110,0.300
16.076,-0.090,0.300
16.080,-0.085,0.315
16.084,-0.080,0.320
16.088,-0.055,0.300
16.092,-0.040,0.270
16.096,-0.065,0.250
16.100,-0.070,0.240
16.104,-0.095,0.210
16.108,-0.110,0.230
16.112,-0.125,0.250
16.116,-0.110,0.265
16.120,-0.095,0.280
16.124,-0.085,0.285
16.128,-0.090,0.275
16.132,-0.110,0.265
16.136,-0.120,0.265
16.140,-0.125,0.265
16.144,-0.140,0.290
16.148,-0.155,0.305
16.152,-0.170,0.300
16.156,-0.185,0.300
16.160,-0.175,0.305
16.164,-0.165,0.295
16.168,-0.150,0.300
16.172,-0.155,0.295
16.176,-0.185,0.290
16.180,-0.190,0.280
16.184,-0.190,0.300
16.188,-0.180,0.320
16.192,-0.185,0.325
16.196,-0.195,0.325
16.200,-0.185,0.320
16.204,-0.165,0.285
16.208,-0.170,0.265
16.212,-0.155,0.270
16.216,-0.160,0.295
16.220,-0.175,0.325
16.224,-0.170,0.320
16.228,-0.170,0.300
16.232,-0.165,0.305
16.236,-0.170,0.295
16.240,-0.185,0.280
16.244,-0.180,0.270
16.248,-0.170,0.285
16.252,-0.145,0.300
16.256,-0.110,0.330
16.260,-0.070,0.330
16.264,-0.020,0.325
16.268,0.080,0.305
16.272,0.225,0.270
16.276,0.410,0.220
16.280,0.610,0.130
16.284,0.760,0.030
16.288,0.745,-0.050
16.292,0.475,-0.115
16.296,0.045,-0.130
16.300,-0.090,-0.110
16.304,-0.495,0.110
16.308,-0.565,0.270
16.312,-0.550,0.400
16.316,-0.505,0.450
16.320,-0.445,0.470
16.324,-0.415,0.480
16.328,-0.425,0.490
16.332,-0.440,0.495
16.336,-0.420,0.535
16.340,-0.375,0.580
16.344,-0.335,0.615
16.348,-0.305,0.630
16.352,-0.320,0.635
16.356,-0.355,0.625
16.360,-0.355,0.590
16.364,-0.380,0.570
16.368,-0.365,0.525
16.372,-0.335,0.455
16.376,-0.315,0.390
16.380,-0.275,0.315
16.384,-0.250,0.265
16.388,-0.215,0.220
16.392,-0.190,0.200
16.396,-0.185,0.195
16.400,-0.180,0.185
16.404,-0.190,0.190
16.408,-0.200,0.165
16.412,-0.200,0.175
16.416,-0.180,0.170
16.420,-0.165,0.170
16.424,-0.155,0.180
16.428,-0.165,0.185
16.432,-0.165,0.175
16.436,-0.185,0.180
16.440,-0.195,0.170
16.444,-0.185,0.185
16.448,-0.170,0.175
16.452,-0.150,0.175
16.456,-0.145,0.170
16.460,-0.130,0.185
16.464,-0.135,0.180
16.468,-0.145,0.165
16.472,-0.155,0.165
16.476,-0.170,0.150
16.480,-0.170,0.140
16.484,-0.150,0.125
16.488,-0.135,0.130
16.492,-0.115,0.135
16.496,-0.115,0.130
16.500,-0.110,0.135
16.504,-0.100,0.115
16.508,-0.105,0.105
16.512,-0.095,0.085
16.516,-0.080,0.080
16.520,-0.060,0.090
16.524,-0.020,0.080
16.528,0.000,0.070
16.532,0.020,0.055
16.536,0.035,0.040
16.540,0.050,0.020
16.544,0.045,0.020
16.548,0.050,0.015
16.552,0.055,0.025
16.556,0.085,0.030
16.560,0.115,0.025
16.564,0.125,0.005
16.568,0.115,-0.015
16.572,0.110,-0.025
16.576,0.105,-0.030
16.580,0.115,-0.025
16.584,0.125,-0.010
16.588,0.135,-0.015
16.592,0.125,0.005
16.596,0.120,0.015
16.600,0.115,0.010
16.604,0.060,0.035
16.608,0.040,0.040
16.612,0.010,0.055
16.616,-0.005,0.075
16.620,-0.005,0.105
16.624,-0.020,0.130
16.628,-0.040,0.140
16.632,-0.070,0.160
16.636,-0.085,0.155
16.640,-0.120,0.150
16.644,-0.135,0.145
16.648,-0.160,0.155
16.652,-0.160,0.160
16.656,-0.160,0.170
16.660,-0.160,0.180
16.664,-0.165,0.170
16.668,-0.170,0.180
16.672,-0.180,0.175
16.676,-0.190,0.180
16.680,-0.195,0.200
16.684,-0.205,0.210
16.688,-0.220,0.220
16.692,-0.225,0.220
16.696,-0.235,0.215
16.700,-0.230,0.210
16.704,-0.240,0.190
16.708,-0.250,0.180
16.712,-0.250,0.190
16.716,-0.260,0.180
16.720,-0.245,0.170
16.724,-0.225,0.160
16.728,-0.220,0.160
16.732,-0.225,0.175
16.736,-0.220,0.170
16.740,-0.235,0.170
16.744,-0.225,0.155
16.748,-0.215,0.145
16.752,-0.195,0.160
16.756,-0.170,0.170
16.760,-0.140,0.180
16.764,-0.125,0.180
16.768,-0.140,0.180
16.772,-0.150,0.165
16.776,-0.165,0.170
16.780,-0.185,0.180
16.784,-0.170,0.175
16.788,-0.170,0.155
16.792,-0.160,0.150
16.796,-0.150,0.160
16.800,-0.150,0.165
16.804,-0.175,0.155
16.808,-0.180,0.155
16.812,-0.180,0.175
16.816,-0.155,0.190
16.820,-0.135,0.220
16.824,-0.135,0.205
16.828,-0.145,0.210
16.832,-0.150,0.220
16.836,-0.155,0.215
16.840,-0.150,0.220
16.844,-0.155,0.220
16.848,-0.150,0.220
16.852,-0.155,0.220
16.856,-0.135,0.240
16.860,-0.130,0.245
16.864,-0.130,0.245
16.868,-0.135,0.230
16.872,-0.160,0.215
16.876,-0.175,0.205
16.880,-0.170,0.220
16.884,-0.170,0.220
16.888,-0.160,0.225
16.892,-0.135,0.215
16.896,-0.145,0.215
16.900,-0.140,0.215
16.904,-0.150,0.205
16.908,-0.165,0.190
16.912,-0.185,0.185
16.916,-0.180,0.200
16.920,-0.175,0.205
16.924,-0.150,0.210
16.928,-0.145,0.220
16.932,-0.145,0.210
16.936,-0.145,0.200
16.940,-0.135,0.210
16.944,-0.130,0.205
16.948,-0.110,0.215
16.952,-0.080,0.230
16.956,-0.010,0.245
16.960,0.130,0.250
16.964,0.310,0.225
16.968,0.550,0.135
16.972,0.760,0.020
16.976,0.850,-0.075
16.980,0.740,-0.145
16.984,0.405,-0.175
16.988,-0.040,-0.125
16.992,-0.390,-0.025
16.996,-0.545,0.140
17.000,-0.570,0.200
17.004,-0.530,0.400
17.008,-0.480,0.455
17.012,-0.455,0.470
17.016,-0.440,0.470
17.020,-0.445,0.495
17.024,-0.450,0.520
17.028,-0.435,0.550
17.032,-0.400,0.575
17.036,-0.355,0.590
17.040,-0.330,0.620
17.044,-0.335,0.660
17.048,-0.365,0.710
17.052,-0.370,0.735
17.056,-0.355,0.700
17.060,-0.330,0.615
17.064,-0.310,0.520
17.068,-0.280,0.420
17.072,-0.250,0.350
17.076,-0.225,0.290
17.080,-0.195,0.255
17.084,-0.155,0.225
17.088,-0.150,0.200
17.092,-0.140,0.175
17.096,-0.155,0.180
17.100,-0.160,0.175
17.104,-0.165,0.180
17.108,-0.175,0.170
17.112,-0.185,0.175
17.116,-0.180,0.155
17.120,-0.170,0.145
17.124,-0.150,0.145
17.128,-0.145,0.130
17.132,-0.150,0.125
17.136,-0.155,0.125
17.140,-0.155,0.110
17.144,-0.160,0.090
17.148,-0.155,0.100
17.152,-0.155,0.115
17.156,-0.150,0.130
17.160,-0.150,0.135
17.164,-0.160,0.110
17.168,-0.150,0.095
17.172,-0.150,0.085
17.176,-0.145,0.070
17.180,-0.140,0.080
17.184,-0.120,0.085
17.188,-0.105,0.090
17.192,-0.085,0.090
17.196,-0.090,0.085
17.200,-0.075,0.095
17.204,-0.075,0.080
17.208,-0.080,0.070
17.212,-0.065,0.065
17.216,-0.050,0.065
17.220,-0.015,0.060
17.224,0.015,0.055
17.228,0.030,0.050
17.232,0.040,0.035
17.236,0.035,0.025
17.240,0.050,0.010
17.244,0.070,-0.005
17.248,0.090,-0.010
17.252,0.130,-0.010
17.256,0.160,0.000
17.260,0.175,-0.010
17.264,0.190,-0.025
17.268,0.190,-0.030
17.272,0.185,-0.030
17.276,0.180,-0.015
17.280,0.180,-0.010
17.284,0.175,0.015
17.288,0.175,0.020
17.292,0.165,0.025
17.296,0.165,0.020
17.300,0.155,0.015
17.304,0.115,0.015
17.308,0.095,0.000
17.312,0.075,0.030
17.316,0.045,0.070
17.320,0.020,0.110
17.324,-0.020,0.145
17.328,-0.060,0.165
17.332,-0.095,0.165
17.336,-0.110,0.160
17.340,-0.130,0.165
17.344,-0.140,0.180
17.348,-0.160,0.205
17.352,-0.165,0.215
17.356,-0.175,0.230
17.360,-0.175,0.225
17.364,-0.185,0.230
17.368,-0.180,0.220
17.372,-0.195,0.195
17.376,-0.210,0.200
17.380,-0.205,0.205
17.384,-0.205,0.225
17.388,-0.200,0.245
17.392,-0.195,0.240
17.396,-0.195,0.230
17.400,-0.190,0.215
17.404,-0.190,0.205
17.408,-0.200,0.195
17.412,-0.205,0.210
17.416,-0.195,0.225
17.420,-0.200,0.220
17.424,-0.185,0.225
17.428,-0.175,0.215
17.432,-0.175,0.210
17.436,-0.185,0.210
17.440,-0.200,0.210
17.444,-0.215,0.215
17.448,-0.220,0.235
17.452,-0.200,0.245
17.456,-0.195,0.245
17.460,-0.200,0.255
17.464,-0.195,0.240
17.468,-0.210,0.230
17.472,-0.225,0.230
17.476,-0.225,0.230
17.480,-0.225,0.220
17.484,-0.220,0.215
17.488,-0.200,0.195
17.492,-0.190,0.180
17.496,-0.200,0.160
17.500,-0.195,0.155
17.504,-0.195,0.155
17.508,-0.200,0.180
17.512,-0.185,0.185
17.516,-0.160,0.205
17.520,-0.155,0.210
17.524,-0.155,0.215
17.528,-0.160,0.225
17.532,-0.175,0.220
17.536,-0.200,0.220
17.540,-0.215,0.205
17.544,-0.225,0.200
17.548,-0.235,0.200
17.552,-0.235,0.215
17.556,-0.245,0.230
17.560,-0.225,0.230
17.564,-0.205,0.230
17.568,-0.195,0.230
17.572,-0.190,0.235
17.576,-0.195,0.220
17.580,-0.205,0.225
17.584,-0.225,0.255
17.588,-0.230,0.285
17.592,-0.205,0.290
17.596,-0.200,0.275
17.600,-0.195,0.270
17.604,-0.205,0.265
17.608,-0.210,0.270
17.612,-0.205,0.270
17.616,-0.205,0.280
17.620,-0.200,0.300
17.624,-0.190,0.305
17.628,-0.200,0.305
17.632,-0.195,0.290
17.636,-0.200,0.280
17.640,-0.200,0.285
17.644,-0.200,0.305
17.648,-0.200,0.315
17.652,-0.190,0.305
17.656,-0.175,0.310
17.660,-0.170,0.315
17.664,-0.175,0.325
17.668,-0.170,0.330
17.672,-0.180,0.290
17.676,-0.170,0.245
17.680,-0.175,0.250
17.684,-0.160,0.270
17.688,-0.140,0.325
17.692,-0.105,0.360
17.696,-0.055,0.355
17.700,-0.035,0.350
17.704,0.155,0.255
17.708,0.320,0.200
17.712,0.505,0.125
17.716,0.655,0.035
17.720,0.615,-0.070
17.724,0.305,-0.130
17.728,-0.150,-0.130
17.732,-0.485,-0.015
17.736,-0.655,0.160
17.740,-0.640,0.345
17.744,-0.570,0.480
17.748,-0.500,0.525
17.752,-0.435,0.520
17.756,-0.410,0.525
17.760,-0.425,0.540
17.764,-0.440,0.560
17.768,-0.425,0.595
17.772,-0.365,0.620
17.776,-0.330,0.650
17.780,-0.335,0.690
17.784,-0.355,0.710
17.788,-0.365,0.720
17.792,-0.365,0.650
17.796,-0.345,0.570
17.800,-0.340,0.540
17.804,-0.305,0.415
17.808,-0.275,0.345
17.812,-0.240,0.285
17.816,-0.210,0.260
17.820,-0.185,0.235
17.824,-0.175,0.200
17.828,-0.180,0.170
17.832,-0.195,0.155
17.836,-0.195,0.150
17.840,-0.195,0.150
17.844,-0.190,0.155
17.848,-0.185,0.170
17.852,-0.185,0.180
17.856,-0.170,0.165
17.860,-0.160,0.150
17.864,-0.170,0.155
17.868,-0.175,0.155
17.872,-0.190,0.170
17.876,-0.190,0.170
17.880,-0.205,0.160
17.884,-0.195,0.150
17.888,-0.185,0.160
17.892,-0.175,0.170
17.896,-0.165,0.185
17.900,-0.165,0.180
17.904,-0.160,0.165
17.908,-0.165,0.150
17.912,-0.175,0.150
17.916,-0.165,0.160
17.920,-0.145,0.165
17.924,-0.135,0.155
17.928,-0.125,0.135
17.932,-0.115,0.135
17.936,-0.095,0.130
17.940,-0.080,0.120
17.944,-0.075,0.115
17.948,-0.065,0.110
17.952,-0.050,0.100
17.956,-0.010,0.100
17.960,0.005,0.090
17.964,0.025,0.070
17.968,0.025,0.060
17.972,0.025,0.040
17.976,0.040,0.025
17.980,0.065,0.025
17.984,0.095,0.010
17.988,0.125,0.015
17.992,0.125,0.015
17.996,0.115,0.020
18.000,0.120,0.010
18.004,0.125,0.010
18.008,0.115,0.000
18.012,0.125,-0.005
18.016,0.130,0.000
18.020,0.120,0.020
18.024,0.125,0.040
18.028,0.120,0.055
18.032,0.080,0.065
18.036,0.045,0.075
18.040,0.025,0.120
18.044,-0.005,0.140
18.048,-0.025,0.160
18.052,-0.030,0.155
18.056,-0.035,0.150
18.060,-0.045,0.150
18.064,-0.095,0.165
18.068,-0.120,0.195
18.072,-0.135,0.220
18.076,-0.160,0.210
18.080,-0.185,0.220
18.084,-0.235,0.250
18.088,-0.270,0.285
18.092,-0.265,0.285
18.096,-0.250,0.275
18.100,-0.250,0.265
18.104,-0.230,0.220
18.108,-0.235,0.200
18.112,-0.240,0.235
18.116,-0.250,0.280
18.120,-0.245,0.270
18.124,-0.230,0.215
18.128,-0.220,0.165
18.132,-0.220,0.145
18.136,-0.215,0.150
18.140,-0.230,0.160
18.144,-0.240,0.175
18.148,-0.245,0.195
18.152,-0.240,0.200
18.156,-0.230,0.230
18.160,-0.220,0.220
18.164,-0.220,0.215
18.168,-0.230,0.200
18.172,-0.240,0.185
18.176,-0.265,0.180
18.180,-0.275,0.205
18.184,-0.285,0.215
18.188,-0.275,0.225
18.192,-0.265,0.205
18.196,-0.270,0.185
18.200,-0.270,0.180
18.204,-0.270,0.135
18.208,-0.275,0.150
18.212,-0.275,0.150
18.216,-0.265,0.165
18.220,-0.250,0.165
18.224,-0.225,0.175
18.228,-0.225,0.175
18.232,-0.215,0.170
18.236,-0.210,0.165
18.240,-0.195,0.150
18.244,-0.205,0.160
18.248,-0.195,0.165
18.252,-0.185,0.190
18.256,-0.185,0.175
18.260,-0.195,0.185
18.264,-0.205,0.170
18.268,-0.210,0.160
18.272,-0.215,0.145
18.276,-0.235,0.130
18.280,-0.250,0.150
18.284,-0.255,0.155
18.288,-0.250,0.180
18.292,-0.240,0.180
18.296,-0.225,0.185
18.300,-0.220,0.180
18.304,-0.200,0.170
18.308,-0.195,0.165
18.312,-0.195,0.195
18.316,-0.195,0.215
18.320,-0.200,0.235
18.324,-0.190,0.225
18.328,-0.200,0.215
18.332,-0.210,0.225
18.336,-0.225,0.230
18.340,-0.235,0.240
18.344,-0.235,0.230
18.348,-0.225,0.225
18.352,-0.215,0.245
18.356,-0.195,0.260
18.360,-0.190,0.255
18.364,-0.195,0.245
18.368,-0.195,0.235
18.372,-0.195,0.225
18.376,-0.210,0.215
18.380,-0.220,0.205
18.384,-0.225,0.220
18.388,-0.210,0.240
18.392,-0.190,0.250
18.396,-0.185,0.250
18.400,-0.180,0.255
18.404,-0.180,0.235
18.408,-0.195,0.230
18.412,-0.200,0.240
18.416,-0.185,0.250
18.420,-0.165,0.270
18.424,-0.150,0.285
18.428,-0.130,0.305
18.432,-0.100,0.335
18.436,0.000,0.325
18.440,0.160,0.285
18.444,0.340,0.210
18.448,0.520,0.090
18.452,0.605,-0.015
18.456,0.515,-0.075
18.460,0.190,-0.125
18.464,-0.210,-0.130
18.468,-0.500,-0.010
18.472,-0.640,0.150
18.476,-0.635,0.330
18.480,-0.560,0.460
18.484,-0.480,0.515
18.488,-0.415,0.540
18.492,-0.390,0.530
18.496,-0.410,0.535
18.500,-0.425,0.535
18.504,-0.430,0.580
18.508,-0.385,0.600
18.512,-0.340,0.630
18.516,-0.315,0.660
18.520,-0.335,0.685
18.524,-0.355,0.705
18.528,-0.375,0.685
18.532,-0.375,0.635
18.536,-0.355,0.555
18.540,-0.315,0.470
18.544,-0.280,0.390
18.548,-0.250,0.300
18.552,-0.215,0.245
18.556,-0.195,0.225
18.560,-0.195,0.220
18.564,-0.200,0.230
18.568,-0.200,0.230
18.572,-0.210,0.220
18.576,-0.210,0.225
18.580,-0.200,0.205
18.584,-0.190,0.195
18.588,-0.190,0.215
18.592,-0.175,0.220
18.596,-0.180,0.215
18.600,-0.180,0.205
18.604,-0.175,0.210
18.608,-0.195,0.205
18.612,-0.200,0.220
18.616,-0.210,0.225
18.620,-0.195,0.215
18.624,-0.180,0.215
18.628,-0.170,0.200
18.632,-0.155,0.185
18.636,-0.170,0.170
18.640,-0.170,0.165
18.644,-0.175,0.160
18.648,-0.170,0.170
18.652,-0.150,0.185
18.656,-0.130,0.180
18.660,-0.110,0.170
18.664,-0.100,0.150
18.668,-0.100,0.115
18.672,-0.105,0.115
18.676,-0.110,0.120
18.680,-0.115,0.130
18.684,-0.095,0.150
18.688,-0.055,0.145
18.692,-0.020,0.135
18.696,0.000,0.125
18.700,0.010,0.115
18.704,-0.005,0.075
18.708,-0.005,0.060
18.712,0.010,0.050
18.716,0.040,0.065
18.720,0.085,0.055
18.724,0.105,0.035
18.728,0.115,0.025
18.732,0.115,0.040
18.736,0.115,0.030
18.740,0.110,0.015
18.744,0.110,0.015
18.748,0.105,0.025
18.752,0.110,0.055
18.756,0.115,0.090
18.760,0.110,0.100
18.764,0.095,0.100
18.768,0.050,0.100
18.772,0.010,0.105
18.776,-0.015,0.120
18.780,-0.025,0.140
18.784,-0.030,0.170
18.788,-0.045,0.195
18.792,-0.055,0.220
18.796,-0.080,0.235
18.800,-0.085,0.225
18.804,-0.110,0.215
18.808,-0.155,0.205
18.812,-0.160,0.215
18.816,-0.155,0.220
18.820,-0.160,0.240
18.824,-0.155,0.235
18.828,-0.185,0.225
18.832,-0.200,0.225
18.836,-0.205,0.225
18.840,-0.205,0.215
18.844,-0.205,0.200
18.848,-0.205,0.200
18.852,-0.195,0.230
18.856,-0.180,0.240
18.860,-0.195,0.255
18.864,-0.195,0.230
18.868,-0.195,0.225
18.872,-0.195,0.200
18.876,-0.200,0.205
18.880,-0.210,0.210
18.884,-0.205,0.225
18.888,-0.195,0.225
18.892,-0.185,0.230
18.896,-0.190,0.220
18.900,-0.200,0.220
18.904,-0.200,0.220
18.908,-0.205,0.225
18.912,-0.210,0.225
18.916,-0.225,0.220
18.920,-0.225,0.220
18.924,-0.220,0.215
18.928,-0.205,0.195
18.932,-0.215,0.180
18.936,-0.220,0.175
18.940,-0.240,0.165
18.944,-0.250,0.180
18.948,-0.235,0.190
18.952,-0.240,0.180
18.956,-0.205,0.190
18.960,-0.205,0.195
18.964,-0.200,0.180
18.968,-0.175,0.185
18.972,-0.170,0.175
18.976,-0.165,0.205
18.980,-0.175,0.205
18.984,-0.190,0.210
18.988,-0.195,0.220
18.992,-0.205,0.215
18.996,-0.210,0.220
19.000,-0.210,0.225
19.004,-0.195,0.200
19.008,-0.200,0.190
19.012,-0.205,0.190
19.016,-0.215,0.185
19.020,-0.225,0.210
19.024,-0.220,0.190
19.028,-0.215,0.200
19.032,-0.205,0.195
19.036,-0.200,0.195
19.040,-0.205,0.195
19.044,-0.215,0.210
19.048,-0.235,0.245
19.052,-0.235,0.260
19.056,-0.215,0.280
19.060,-0.200,0.275
19.064,-0.200,0.255
19.068,-0.210,0.230
19.072,-0.220,0.225
19.076,-0.225,0.220
19.080,-0.225,0.220
19.084,-0.215,0.225
19.088,-0.210,0.245
19.092,-0.195,0.265
19.096,-0.190,0.270
19.100,-0.195,0.275
19.104,-0.205,0.260
19.108,-0.215,0.260
19.112,-0.225,0.230
19.116,-0.225,0.240
19.120,-0.220,0.245
19.124,-0.200,0.265
19.128,-0.195,0.285
19.132,-0.185,0.265
19.136,-0.190,0.260
19.140,-0.205,0.245
19.144,-0.220,0.235
19.148,-0.210,0.250
19.152,-0.185,0.250
19.156,-0.165,0.260
19.160,-0.125,0.280
19.164,-0.095,0.300
19.168,-0.030,0.300
19.172,0.100,0.280
19.176,0.270,0.195
19.180,0.455,0.085
19.184,0.570,-0.035
19.188,0.535,-0.140
19.192,0.275,-0.200
19.196,-0.125,-0.170
19.200,-0.250,-0.150
19.204,-0.620,0.100
19.208,-0.645,0.280
19.212,-0.590,0.425
19.216,-0.510,0.500
19.220,-0.460,0.535
19.224,-0.410,0.555
19.228,-0.415,0.540
19.232,-0.435,0.535
19.236,-0.440,0.535
19.240,-0.415,0.570
19.244,-0.375,0.600
19.248,-0.340,0.640
19.252,-0.325,0.670
19.256,-0.320,0.700
19.260,-0.335,0.700
19.264,-0.350,0.700
19.268,-0.355,0.645
19.272,-0.345,0.580
19.276,-0.335,0.510
19.280,-0.300,0.425
19.284,-0.260,0.350
19.288,-0.225,0.285
19.292,-0.190,0.245
19.296,-0.190,0.230
19.300,-0.180,0.220
19.304,-0.195,0.200
19.308,-0.210,0.200
19.312,-0.215,0.185
19.316,-0.210,0.185
19.320,-0.190,0.205
19.324,-0.180,0.205
19.328,-0.180,0.195
19.332,-0.180,0.185
19.336,-0.185,0.185
19.340,-0.195,0.185
19.344,-0.200,0.185
19.348,-0.200,0.185
19.352,-0.190,0.195
19.356,-0.180,0.200
19.360,-0.175,0.185
19.364,-0.155,0.170
19.368,-0.150,0.160
19.372,-0.155,0.155
19.376,-0.160,0.165
19.380,-0.170,0.170
19.384,-0.160,0.175
19.388,-0.140,0.180
19.392,-0.125,0.175
19.396,-0.125,0.145
19.400,-0.125,0.135
19.404,-0.115,0.115
19.408,-0.105,0.120
19.412,-0.110,0.110
19.416,-0.100,0.120
19.420,-0.075,0.115
19.424,-0.060,0.115
19.428,-0.040,0.095
19.432,-0.025,0.090
19.436,-0.020,0.075
19.440,-0.020,0.045
19.444,-0.035,0.030
19.448,-0.020,0.020
19.452,0.015,0.025
19.456,0.060,0.020
19.460,0.080,0.010
19.464,0.095,0.000
19.468,0.095,-0.010
19.472,0.085,-0.030
19.476,0.070,-0.040
19.480,0.070,-0.025
19.484,0.095,-0.010
19.488,0.105,0.010
19.492,0.110,0.020
19.496,0.100,0.015
19.500,0.090,0.015
19.504,0.065,0.040
19.508,0.050,0.055
19.512,0.015,0.060
19.516,0.010,0.075
19.520,0.000,0.100
19.524,-0.010,0.135
19.528,-0.045,0.150
19.532,-0.060,0.170
19.536,-0.070,0.165
19.540,-0.095,0.175
19.544,-0.120,0.190
19.548,-0.140,0.210
19.552,-0.155,0.240
19.556,-0.150,0.255
19.560,-0.145,0.265
19.564,-0.150,0.250
19.568,-0.170,0.235
19.572,-0.190,0.235
19.576,-0.200,0.240
19.580,-0.200,0.255
19.584,-0.190,0.255
19.588,-0.180,0.255
19.592,-0.170,0.255
19.596,-0.175,0.260
19.600,-0.180,0.265
19.604,-0.205,0.255
19.608,-0.215,0.235
19.612,-0.220,0.235
19.616,-0.215,0.245
19.620,-0.205,0.255
19.624,-0.185,0.265
19.628,-0.180,0.260
19.632,-0.185,0.250
19.636,-0.190,0.230
19.640,-0.210,0.230
19.644,-0.210,0.240
19.648,-0.220,0.250
19.652,-0.220,0.265
19.656,-0.225,0.265
19.660,-0.210,0.240
19.664,-0.205,0.215
19.668,-0.200,0.180
19.672,-0.205,0.170
19.676,-0.215,0.175
19.680,-0.215,0.185
19.684,-0.215,0.205
19.688,-0.210,0.220
19.692,-0.185,0.250
19.696,-0.200,0.240
19.700,-0.195,0.235
19.704,-0.175,0.220
19.708,-0.165,0.205
19.712,-0.170,0.215
19.716,-0.160,0.235
19.720,-0.160,0.250
19.724,-0.160,0.245
19.728,-0.165,0.230
19.732,-0.175,0.220
19.736,-0.200,0.215
19.740,-0.195,0.190
19.744,-0.195,0.195
19.748,-0.185,0.180
19.752,-0.200,0.195
19.756,-0.185,0.200
19.760,-0.200,0.215
19.764,-0.190,0.230
19.768,-0.180,0.240
19.772,-0.185,0.235
19.776,-0.195,0.240
19.780,-0.205,0.230
19.784,-0.210,0.235
19.788,-0.195,0.245
19.792,-0.180,0.255
19.796,-0.195,0.270
19.800,-0.205,0.275
19.804,-0.210,0.245
19.808,-0.220,0.225
19.812,-0.225,0.220
19.816,-0.215,0.225
19.820,-0.195,0.230
19.824,-0.180,0.240
19.828,-0.185,0.225
19.832,-0.185,0.235
19.836,-0.190,0.225
19.840,-0.210,0.215
19.844,-0.205,0.215
19.848,-0.215,0.215
19.852,-0.205,0.215
19.856,-0.195,0.220
19.860,-0.180,0.225
19.864,-0.190,0.230
19.868,-0.185,0.225
19.872,-0.180,0.210
19.876,-0.180,0.205
19.880,-0.175,0.200
19.884,-0.145,0.205
19.888,-0.120,0.230
19.892,-0.095,0.250
19.896,-0.055,0.280
19.900,-0.040,0.290
19.904,0.125,0.240
19.908,0.280,0.140
19.912,0.430,0.015
19.916,0.535,-0.095
19.920,0.490,-0.175
19.924,0.250,-0.215
19.928,-0.100,-0.210
19.932,-0.415,-0.130
19.936,-0.595,0.025
19.940,-0.610,0.205
19.944,-0.565,0.375
19.948,-0.505,0.465
19.952,-0.445,0.505
19.956,-0.420,0.510
19.960,-0.410,0.505
19.964,-0.425,0.520
19.968,-0.425,0.565
19.972,-0.375,0.590
19.976,-0.325,0.610
19.980,-0.315,0.640
19.984,-0.325,0.660
19.988,-0.340,0.690
19.992,-0.340,0.670
19.996,-0.335,0.595
20.000,-0.330,0.565
20.004,-0.290,0.395
20.008,-0.250,0.280
20.012,-0.225,0.230
20.016,-0.205,0.200
20.020,-0.185,0.190
20.024,-0.180,0.190
20.028,-0.190,0.180
20.032,-0.190,0.165
20.036,-0.195,0.150
20.040,-0.195,0.145
20.044,-0.185,0.150
20.048,-0.200,0.145
20.052,-0.205,0.165
20.056,-0.200,0.165
20.060,-0.175,0.155
20.064,-0.180,0.145
20.068,-0.180,0.140
20.072,-0.195,0.135
20.076,-0.205,0.135
20.080,-0.205,0.130
20.084,-0.195,0.150
20.088,-0.175,0.170
20.092,-0.155,0.180
20.096,-0.155,0.175
20.100,-0.160,0.170
20.104,-0.175,0.135
20.108,-0.160,0.125
20.112,-0.165,0.125
20.116,-0.155,0.150
20.120,-0.145,0.135
20.124,-0.130,0.125
20.128,-0.130,0.110
20.132,-0.105,0.110
20.136,-0.100,0.105
20.140,-0.100,0.100
20.144,-0.105,0.090
20.148,-0.095,0.075
20.152,-0.070,0.075
20.156,-0.045,0.090
20.160,-0.015,0.075
20.164,-0.005,0.055
20.168,0.010,0.040
20.172,0.015,0.020
20.176,0.025,0.000
20.180,0.055,0.000
20.184,0.070,0.000
20.188,0.090,-0.015
20.192,0.105,-0.015
20.196,0.110,-0.015
20.200,0.110,-0.020
20.204,0.100,-0.030
20.208,0.095,-0.040
20.212,0.090,-0.035
20.216,0.095,-0.015
20.220,0.080,0.015
20.224,0.085,0.020
20.228,0.065,0.030
20.232,0.040,0.045
20.236,0.020,0.050
20.240,-0.020,0.075
20.244,-0.045,0.105
20.248,-0.070,0.135
20.252,-0.080,0.175
20.256,-0.100,0.190
20.260,-0.105,0.205
20.264,-0.120,0.195
20.268,-0.130,0.195
20.272,-0.155,0.195
20.276,-0.165,0.190
20.280,-0.165,0.180
20.284,-0.165,0.205
20.288,-0.165,0.220
20.292,-0.165,0.230
20.296,-0.170,0.230
20.300,-0.175,0.235
20.304,-0.190,0.205
20.308,-0.180,0.205
20.312,-0.205,0.220
20.316,-0.200,0.220
20.320,-0.195,0.230
20.324,-0.205,0.235
20.328,-0.200,0.230
20.332,-0.195,0.225
20.336,-0.195,0.225
20.340,-0.205,0.210
20.344,-0.195,0.195
20.348,-0.205,0.215
20.352,-0.200,0.230
20.356,-0.190,0.235
20.360,-0.175,0.240
20.364,-0.175,0.245
20.368,-0.180,0.250
20.372,-0.195,0.230
20.376,-0.225,0.225
20.380,-0.230,0.230
20.384,-0.235,0.240
20.388,-0.225,0.240
20.392,-0.225,0.240
20.396,-0.220,0.210
20.400,-0.215,0.205
20.404,-0.205,0.190
20.408,-0.200,0.180
20.412,-0.215,0.175
20.416,-0.205,0.190
20.420,-0.195,0.195
20.424,-0.170,0.195
20.428,-0.155,0.195
20.432,-0.150,0.200
20.436,-0.150,0.210
20.440,-0.150,0.210
20.444,-0.150,0.210
20.448,-0.160,0.200
20.452,-0.175,0.200
20.456,-0.170,0.200
20.460,-0.170,0.220
20.464,-0.155,0.215
20.468,-0.165,0.205
20.472,-0.175,0.195
20.476,-0.190,0.180
20.480,-0.200,0.195
20.484,-0.175,0.215
20.488,-0.180,0.215
20.492,-0.150,0.220
20.496,-0.150,0.215
20.500,-0.140,0.225
20.504,-0.170,0.230
20.508,-0.200,0.245
20.512,-0.205,0.250
20.516,-0.185,0.240
20.520,-0.170,0.240
20.524,-0.170,0.255
20.528,-0.165,0.255
20.532,-0.170,0.245
20.536,-0.175,0.230
20.540,-0.175,0.205
20.544,-0.185,0.225
20.548,-0.175,0.240
20.552,-0.180,0.235
20.556,-0.185,0.245
20.560,-0.175,0.240
20.564,-0.160,0.240
20.568,-0.165,0.235
20.572,-0.170,0.230
20.576,-0.180,0.215
20.580,-0.185,0.205
20.584,-0.180,0.210
20.588,-0.165,0.235
20.592,-0.155,0.240
20.596,-0.145,0.240
20.600,-0.145,0.240
20.604,-0.160,0.215
20.608,-0.180,0.210
20.612,-0.185,0.215
20.616,-0.140,0.235
20.620,-0.100,0.250
20.624,-0.045,0.265
20.628,0.000,0.265
20.632,0.095,0.245
20.636,0.225,0.185
20.640,0.390,0.075
20.644,0.535,-0.040
20.648,0.600,-0.140
20.652,0.480,-0.215
20.656,0.170,-0.235
20.660,-0.200,-0.195
20.664,-0.460,-0.060
20.668,-0.555,0.120
20.672,-0.560,0.300
20.676,-0.510,0.420
20.680,-0.450,0.465
20.684,-0.405,0.480
20.688,-0.395,0.490
20.692,-0.390,0.510
20.696,-0.410,0.515
20.700,-0.410,0.525
20.704,-0.350,0.560
20.708,-0.295,0.600
20.712,-0.270,0.635
20.716,-0.270,0.655
20.720,-0.295,0.695
20.724,-0.315,0.685
20.728,-0.330,0.650
20.732,-0.335,0.605
20.736,-0.325,0.515
20.740,-0.280,0.410
20.744,-0.245,0.315
20.748,-0.200,0.265
20.752,-0.170,0.220
20.756,-0.155,0.200
20.760,-0.140,0.175
20.764,-0.140,0.175
20.768,-0.155,0.165
20.772,-0.160,0.160
20.776,-0.160,0.170
20.780,-0.170,0.160
20.784,-0.175,0.140
20.788,-0.155,0.155
20.792,-0.140,0.145
20.796,-0.140,0.155
20.800,-0.145,0.150
20.804,-0.135,0.140
20.808,-0.130,0.130
20.812,-0.140,0.140
20.816,-0.155,0.155
20.820,-0.145,0.165
20.824,-0.150,0.170
20.828,-0.155,0.135
20.832,-0.135,0.130
20.836,-0.130,0.125
20.840,-0.130,0.120
20.844,-0.120,0.125
20.848,-0.110,0.105
20.852,-0.105,0.130
20.856,-0.090,0.145
20.860,-0.075,0.130
20.864,-0.075,0.095
20.868,-0.060,0.045
20.872,-0.060,0.030
20.876,-0.050,0.040
20.880,-0.030,0.060
20.884,-0.015,0.055
20.888,0.005,0.055
20.892,0.030,0.035
20.896,0.060,0.015
20.900,0.065,0.020
20.904,0.085,0.005
20.908,0.085,-0.015
20.912,0.080,-0.025
20.916,0.090,-0.030
20.920,0.095,-0.030
20.924,0.110,-0.010
20.928,0.140,-0.015
20.932,0.130,-0.025
20.936,0.135,-0.030
20.940,0.135,-0.035
20.944,0.115,-0.025
20.948,0.095,-0.020
20.952,0.080,0.005
20.956,0.065,0.015
20.960,0.060,0.040
20.964,0.040,0.045
20.968,0.025,0.060
20.972,0.010,0.065
20.976,-0.015,0.085
20.980,-0.040,0.120
20.984,-0.070,0.150
20.988,-0.085,0.175
20.992,-0.085,0.190
20.996,-0.090,0.180
21.000,-0.095,0.175
21.004,-0.130,0.180
21.008,-0.150,0.205
21.012,-0.165,0.225
21.016,-0.175,0.245
21.020,-0.160,0.260
21.024,-0.155,0.235
21.028,-0.135,0.190
21.032,-0.145,0.165
21.036,-0.160,0.150
21.040,-0.190,0.180
21.044,-0.210,0.195
21.048,-0.220,0.230
21.052,-0.220,0.235
21.056,-0.185,0.250
21.060,-0.170,0.245
21.064,-0.155,0.220
21.068,-0.160,0.205
21.072,-0.185,0.185
21.076,-0.200,0.190
21.080,-0.195,0.195
21.084,-0.190,0.210
21.088,-0.170,0.215
21.092,-0.145,0.205
21.096,-0.150,0.215
21.100,-0.145,0.215
21.104,-0.185,0.220
21.108,-0.190,0.225
21.112,-0.190,0.210
21.116,-0.180,0.220
21.120,-0.155,0.225
21.124,-0.145,0.220
21.128,-0.150,0.210
21.132,-0.160,0.210
21.136,-0.165,0.210
21.140,-0.165,0.215
21.144,-0.175,0.215
21.148,-0.165,0.215
21.152,-0.175,0.220
21.156,-0.160,0.210
21.160,-0.140,0.205
21.164,-0.140,0.200
21.168,-0.145,0.195
21.172,-0.155,0.195
21.176,-0.180,0.200
21.180,-0.185,0.210
21.184,-0.195,0.220
21.188,-0.185,0.225
21.192,-0.180,0.215
21.196,-0.175,0.205
21.200,-0.165,0.205
21.204,-0.165,0.205
21.208,-0.180,0.190
21.212,-0.195,0.195
21.216,-0.200,0.205
21.220,-0.185,0.215
21.224,-0.175,0.245
21.228,-0.170,0.245
21.232,-0.170,0.230
21.236,-0.165,0.205
21.240,-0.175,0.180
21.244,-0.185,0.185
21.248,-0.190,0.195
21.252,-0.195,0.210
21.256,-0.190,0.225
21.260,-0.180,0.225
21.264,-0.180,0.225
21.268,-0.190,0.220
21.272,-0.195,0.200
21.276,-0.195,0.195
21.280,-0.190,0.195
21.284,-0.190,0.205
21.288,-0.180,0.200
21.292,-0.185,0.215
21.296,-0.190,0.220
21.300,-0.190,0.230
21.304,-0.215,0.210
21.308,-0.210,0.195
21.312,-0.210,0.200
21.316,-0.205,0.190
21.320,-0.200,0.215
21.324,-0.195,0.225
21.328,-0.190,0.230
21.332,-0.200,0.220
21.336,-0.195,0.210
21.340,-0.190,0.205
21.344,-0.190,0.205
21.348,-0.190,0.195
21.352,-0.185,0.175
21.356,-0.190,0.175
21.360,-0.205,0.190
21.364,-0.215,0.200
21.368,-0.210,0.215
21.372,-0.205,0.205
21.376,-0.205,0.210
21.380,-0.205,0.200
21.384,-0.205,0.175
21.388,-0.195,0.185
21.392,-0.170,0.190
21.396,-0.180,0.180
21.400,-0.180,0.185
21.404,-0.195,0.175
21.408,-0.210,0.180
21.412,-0.225,0.185
21.416,-0.230,0.200
21.420,-0.210,0.220
21.424,-0.200,0.215
21.428,-0.190,0.195
21.432,-0.190,0.170
21.436,-0.195,0.155
21.440,-0.205,0.160
21.444,-0.210,0.170
21.448,-0.210,0.180
21.452,-0.205,0.205
21.456,-0.205,0.190
21.460,-0.200,0.200
21.464,-0.205,0.185
21.468,-0.200,0.180
21.472,-0.190,0.180
21.476,-0.210,0.180
21.480,-0.215,0.185
21.484,-0.215,0.190
21.488,-0.210,0.205
21.492,-0.200,0.205
21.496,-0.190,0.190
21.500,-0.195,0.190
21.504,-0.215,0.175
21.508,-0.230,0.180
21.512,-0.220,0.185
21.516,-0.205,0.175
21.520,-0.205,0.190
21.524,-0.205,0.195
21.528,-0.195,0.185
21.532,-0.195,0.185
21.536,-0.195,0.175
21.540,-0.215,0.145
21.544,-0.230,0.155
21.548,-0.225,0.185
21.552,-0.215,0.200
21.556,-0.200,0.210
21.560,-0.185,0.205
21.564,-0.190,0.185
21.568,-0.195,0.175
21.572,-0.200,0.180
21.576,-0.215,0.205
21.580,-0.220,0.210
21.584,-0.230,0.225
21.588,-0.225,0.210
21.592,-0.210,0.205
21.596,-0.205,0.210
21.600,-0.205,0.215
21.604,-0.200,0.205
21.608,-0.210,0.205
21.612,-0.225,0.210
21.616,-0.205,0.200
21.620,-0.185,0.180
21.624,-0.190,0.185
21.628,-0.195,0.180
21.632,-0.195,0.205
21.636,-0.205,0.210
21.640,-0.195,0.195
21.644,-0.190,0.190
21.648,-0.195,0.195
21.652,-0.195,0.205
21.656,-0.190,0.210
21.660,-0.175,0.220
21.664,-0.175,0.215
21.668,-0.175,0.210
21.672,-0.185,0.195
21.676,-0.200,0.190
21.680,-0.205,0.195
21.684,-0.220,0.200
21.688,-0.210,0.205
21.692,-0.190,0.225
21.696,-0.170,0.220
21.700,-0.165,0.215
21.704,-0.185,0.190
21.708,-0.195,0.180
21.712,-0.205,0.175
21.716,-0.215,0.190
21.720,-0.210,0.205
21.724,-0.200,0.210
21.728,-0.185,0.195
21.732,-0.180,0.195
21.736,-0.180,0.185
21.740,-0.195,0.180
21.744,-0.205,0.170
21.748,-0.210,0.175
21.752,-0.210,0.180
21.756,-0.200,0.185
21.760,-0.185,0.195
21.764,-0.180,0.185
21.768,-0.175,0.175
21.772,-0.195,0.165
21.776,-0.195,0.165
21.780,-0.200,0.175
21.784,-0.200,0.175
21.788,-0.180,0.185
21.792,-0.165,0.210
21.796,-0.175,0.210
21.800,-0.175,0.200
21.804,-0.200,0.175
21.808,-0.210,0.145
21.812,-0.210,0.140
21.816,-0.205,0.165
21.820,-0.200,0.185
21.824,-0.195,0.200
21.828,-0.180,0.180
21.832,-0.180,0.160
21.836,-0.175,0.160
21.840,-0.180,0.150
21.844,-0.190,0.160
21.848,-0.195,0.155
21.852,-0.195,0.145
21.856,-0.200,0.165
21.860,-0.185,0.150
21.864,-0.205,0.155
21.868,-0.210,0.150
21.872,-0.205,0.160
21.876,-0.220,0.155
21.880,-0.200,0.160
21.884,-0.190,0.160
21.888,-0.185,0.160
21.892,-0.175,0.170
21.896,-0.190,0.165
21.900,-0.205,0.165
21.904,-0.220,0.140
21.908,-0.210,0.140
21.912,-0.210,0.150
21.916,-0.210,0.165
21.920,-0.205,0.175
21.924,-0.200,0.175
21.928,-0.215,0.175
21.932,-0.220,0.160
21.936,-0.215,0.150
21.940,-0.215,0.135
21.944,-0.215,0.130
21.948,-0.215,0.135
21.952,-0.225,0.150
21.956,-0.230,0.185
21.960,-0.220,0.190
21.964,-0.205,0.175
21.968,-0.195,0.150
21.972,-0.200,0.125
21.976,-0.200,0.110
21.980,-0.210,0.120
21.984,-0.200,0.145
21.988,-0.205,0.145
21.992,-0.205,0.150
21.996,-0.210,0.125
22.000,-0.225,0.130
22.004,-0.210,0.110
22.008,-0.210,0.105
22.012,-0.215,0.125
22.016,-0.215,0.140
22.020,-0.210,0.150
22.024,-0.205,0.150
22.028,-0.215,0.155
22.032,-0.205,0.140
22.036,-0.210,0.130
22.040,-0.215,0.135
22.044,-0.225,0.125
22.048,-0.215,0.145
22.052,-0.205,0.150
22.056,-0.190,0.150
22.060,-0.190,0.145
22.064,-0.200,0.140
22.068,-0.205,0.145
22.072,-0.215,0.135
22.076,-0.230,0.130
22.080,-0.230,0.135
22.084,-0.230,0.145
22.088,-0.205,0.155
22.092,-0.195,0.150
22.096,-0.190,0.135
22.100,-0.195,0.140
22.104,-0.190,0.115
22.108,-0.185,0.105
22.112,-0.195,0.110
22.116,-0.190,0.125
22.120,-0.190,0.135
22.124,-0.185,0.150
22.128,-0.195,0.150
22.132,-0.200,0.140
22.136,-0.195,0.130
22.140,-0.205,0.125
22.144,-0.205,0.130
22.148,-0.200,0.140
22.152,-0.195,0.145
22.156,-0.185,0.145
22.160,-0.200,0.150
22.164,-0.220,0.145
22.168,-0.205,0.125
22.172,-0.195,0.120
22.176,-0.210,0.110
22.180,-0.205,0.130
22.184,-0.225,0.140
22.188,-0.220,0.150
22.192,-0.205,0.120
22.196,-0.200,0.115
22.200,-0.190,0.110
22.204,-0.195,0.100
22.208,-0.205,0.110
22.212,-0.215,0.115
22.216,-0.215,0.145
22.220,-0.205,0.145
22.224,-0.190,0.145
22.228,-0.200,0.130
22.232,-0.200,0.130
22.236,-0.205,0.130
22.240,-0.215,0.120
22.244,-0.225,0.110
22.248,-0.210,0.100
22.252,-0.205,0.115
22.256,-0.180,0.140
22.260,-0.180,0.135
22.264,-0.180,0.145
22.268,-0.185,0.135
22.272,-0.195,0.115
22.276,-0.215,0.105
22.280,-0.210,0.110
22.284,-0.200,0.125
22.288,-0.185,0.150
22.292,-0.150,0.165
22.296,-0.155,0.160
22.300,-0.160,0.150
22.304,-0.170,0.135
22.308,-0.160,0.125
22.312,-0.145,0.150
22.316,-0.130,0.165
22.320,-0.110,0.175
22.324,-0.095,0.170
22.328,-0.095,0.150
22.332,-0.110,0.145
22.336,-0.110,0.135
22.340,-0.120,0.120
22.344,-0.135,0.115
22.348,-0.125,0.110
22.352,-0.125,0.115
22.356,-0.120,0.115
22.360,-0.120,0.125
22.364,-0.135,0.105
22.368,-0.145,0.110
22.372,-0.145,0.095
22.376,-0.175,0.095
22.380,-0.170,0.090
22.384,-0.165,0.110
22.388,-0.165,0.115
22.392,-0.155,0.130
22.396,-0.155,0.145
22.400,-0.160,0.155
22.404,-0.180,0.140
22.408,-0.190,0.125
22.412,-0.210,0.120
22.416,-0.195,0.125
22.420,-0.190,0.140
22.424,-0.205,0.140
22.428,-0.205,0.145
22.432,-0.205,0.140
22.436,-0.205,0.145
22.440,-0.220,0.155
22.444,-0.210,0.140
22.448,-0.220,0.145
22.452,-0.215,0.140
22.456,-0.190,0.155
22.460,-0.185,0.150
22.464,-0.190,0.155
22.468,-0.195,0.160
22.472,-0.200,0.155
22.476,-0.210,0.140
22.480,-0.205,0.140
22.484,-0.190,0.135
22.488,-0.190,0.145
22.492,-0.185,0.150
22.496,-0.185,0.165
22.500,-0.180,0.175
22.504,-0.175,0.165
22.508,-0.135,0.160
22.512,-0.085,0.175
22.516,0.005,0.190
22.520,0.165,0.180
22.524,0.375,0.125
22.528,0.585,0.040
22.532,0.735,-0.060
22.536,0.755,-0.145
22.540,0.495,-0.220
22.544,0.105,-0.220
22.548,-0.275,-0.120
22.552,-0.480,0.030
22.556,-0.550,0.190
22.560,-0.530,0.310
22.564,-0.490,0.340
22.568,-0.460,0.350
22.572,-0.440,0.340
22.576,-0.440,0.345
22.580,-0.460,0.375
22.584,-0.490,0.430
22.588,-0.460,0.475
22.592,-0.410,0.495
22.596,-0.360,0.520
22.600,-0.350,0.520
22.604,-0.350,0.565
22.608,-0.360,0.590
22.612,-0.395,0.600
22.616,-0.390,0.580
22.620,-0.380,0.515
22.624,-0.340,0.430
22.628,-0.315,0.350
22.632,-0.275,0.275
22.636,-0.255,0.195
22.640,-0.235,0.140
22.644,-0.230,0.110
22.648,-0.215,0.100
22.652,-0.215,0.115
22.656,-0.185,0.145
22.660,-0.185,0.155
22.664,-0.200,0.130
22.668,-0.210,0.125
22.672,-0.215,0.100
22.676,-0.210,0.085
22.680,-0.205,0.095
22.684,-0.195,0.105
22.688,-0.190,0.135
22.692,-0.175,0.155
22.696,-0.175,0.155
22.700,-0.185,0.150
22.704,-0.190,0.115
22.708,-0.195,0.105
22.712,-0.190,0.100
22.716,-0.185,0.120
22.720,-0.170,0.140
22.724,-0.175,0.130
22.728,-0.180,0.120
22.732,-0.175,0.125
22.736,-0.175,0.115
22.740,-0.175,0.090
22.744,-0.185,0.080
22.748,-0.175,0.070
22.752,-0.170,0.080
22.756,-0.145,0.095
22.760,-0.130,0.095
22.764,-0.110,0.095
22.768,-0.110,0.075
22.772,-0.105,0.070
22.776,-0.110,0.050
22.780,-0.110,0.055
22.784,-0.100,0.045
22.788,-0.090,0.055
22.792,-0.070,0.050
22.796,-0.055,0.035
22.800,-0.055,0.030
22.804,-0.020,0.010
22.808,-0.020,0.000
22.812,-0.015,0.000
22.816,-0.015,-0.015
22.820,0.005,-0.030
22.824,0.040,-0.015
22.828,0.050,-0.015
22.832,0.065,-0.015
22.836,0.070,-0.035
22.840,0.070,-0.060
22.844,0.075,-0.075
22.848,0.070,-0.060
22.852,0.080,-0.035
22.856,0.080,-0.020
22.860,0.070,-0.015
22.864,0.060,0.000
22.868,0.055,0.005
22.872,0.055,0.000
22.876,0.040,0.025
22.880,0.000,0.035
22.884,-0.020,0.075
22.888,-0.035,0.090
22.892,-0.035,0.110
22.896,-0.060,0.115
22.900,-0.055,0.115
22.904,-0.085,0.120
22.908,-0.105,0.120
22.912,-0.115,0.125
22.916,-0.120,0.140
22.920,-0.125,0.150
22.924,-0.120,0.175
22.928,-0.135,0.175
22.932,-0.145,0.170
22.936,-0.160,0.170
22.940,-0.175,0.170
22.944,-0.185,0.160
22.948,-0.185,0.175
22.952,-0.200,0.175
22.956,-0.205,0.175
22.960,-0.205,0.185
22.964,-0.200,0.160
22.968,-0.205,0.140
22.972,-0.225,0.115
22.976,-0.235,0.110
22.980,-0.230,0.120
22.984,-0.225,0.155
22.988,-0.210,0.160
22.992,-0.190,0.160
22.996,-0.175,0.135
23.000,-0.175,0.130
23.004,-0.185,0.120
23.008,-0.200,0.110
23.012,-0.180,0.120
23.016,-0.155,0.155
23.020,-0.125,0.175
23.024,-0.110,0.180
23.028,-0.115,0.170
23.032,-0.135,0.145
23.036,-0.145,0.135
23.040,-0.165,0.120
23.044,-0.170,0.120
23.048,-0.170,0.125
23.052,-0.165,0.145
23.056,-0.165,0.160
23.060,-0.150,0.170
23.064,-0.135,0.170
23.068,-0.125,0.175
23.072,-0.115,0.170
23.076,-0.115,0.155
23.080,-0.120,0.155
23.084,-0.125,0.170
23.088,-0.130,0.205
23.092,-0.130,0.215
23.096,-0.130,0.185
23.100,-0.130,0.175
23.104,-0.135,0.150
23.108,-0.140,0.150
23.112,-0.150,0.170
23.116,-0.155,0.180
23.120,-0.160,0.190
23.124,-0.145,0.200
23.128,-0.145,0.190
23.132,-0.145,0.185
23.136,-0.150,0.170
23.140,-0.155,0.165
23.144,-0.160,0.185
23.148,-0.160,0.205
23.152,-0.145,0.210
23.156,-0.120,0.220
23.160,-0.120,0.200
23.164,-0.130,0.200
23.168,-0.130,0.190
23.172,-0.140,0.180
23.176,-0.135,0.185
23.180,-0.135,0.200
23.184,-0.140,0.215
23.188,-0.130,0.210
23.192,-0.130,0.215
23.196,-0.120,0.205
23.200,-0.125,0.210
23.204,-0.090,0.225
23.208,-0.055,0.235
23.212,0.025,0.235
23.216,0.185,0.215
23.220,0.400,0.135
23.224,0.615,0.055
23.228,0.765,-0.045
23.232,0.710,-0.135
23.236,0.390,-0.170
23.240,-0.080,-0.120
23.244,-0.440,0.040
23.248,-0.585,0.245
23.252,-0.565,0.395
23.256,-0.450,0.460
23.260,-0.365,0.460
23.264,-0.330,0.450
23.268,-0.355,0.455
23.272,-0.400,0.460
23.276,-0.405,0.485
23.280,-0.360,0.520
23.284,-0.315,0.570
23.288,-0.280,0.620
23.292,-0.275,0.645
23.296,-0.295,0.635
23.300,-0.300,0.625
23.304,-0.305,0.540
23.308,-0.315,0.480
23.312,-0.310,0.430
23.316,-0.285,0.380
23.320,-0.245,0.315
23.324,-0.195,0.250
23.328,-0.160,0.200
23.332,-0.155,0.150
23.336,-0.155,0.130
23.340,-0.150,0.130
23.344,-0.160,0.130
23.348,-0.155,0.155
23.352,-0.165,0.140
23.356,-0.165,0.150
23.360,-0.160,0.135
23.364,-0.145,0.130
23.368,-0.135,0.125
23.372,-0.140,0.125
23.376,-0.140,0.135
23.380,-0.150,0.130
23.384,-0.145,0.130
23.388,-0.125,0.135
23.392,-0.120,0.135
23.396,-0.125,0.130
23.400,-0.130,0.130
23.404,-0.135,0.110
23.408,-0.130,0.105
23.412,-0.125,0.105
23.416,-0.125,0.120
23.420,-0.105,0.130
23.424,-0.095,0.140
23.428,-0.095,0.145
23.432,-0.085,0.130
23.436,-0.065,0.115
23.440,-0.070,0.080
23.444,-0.055,0.050
23.448,-0.050,0.045
23.452,-0.035,0.050
23.456,-0.015,0.065
23.460,0.005,0.070
23.464,0.030,0.070
23.468,0.045,0.045
23.472,0.050,0.030
23.476,0.055,0.010
23.480,0.065,0.010
23.484,0.075,0.010
23.488,0.115,0.000
23.492,0.145,0.005
23.496,0.160,-0.020
23.500,0.165,-0.030
23.504,0.165,-0.045
23.508,0.145,-0.040
23.512,0.145,-0.025
23.516,0.155,-0.030
23.520,0.155,-0.020
23.524,0.165,-0.020
23.528,0.160,-0.015
23.532,0.145,0.000
23.536,0.130,0.015
23.540,0.095,0.030
23.544,0.055,0.050
23.548,0.045,0.060
23.552,0.030,0.085
23.556,0.025,0.110
23.560,-0.005,0.125
23.564,-0.040,0.145
23.568,-0.065,0.160
23.572,-0.090,0.170
23.576,-0.100,0.165
23.580,-0.120,0.180
23.584,-0.130,0.200
23.588,-0.145,0.205
23.592,-0.135,0.205
23.596,-0.135,0.215
23.600,-0.140,0.220
23.604,-0.170,0.215
23.608,-0.190,0.205
23.612,-0.195,0.210
23.616,-0.200,0.220
23.620,-0.180,0.230
23.624,-0.175,0.215
23.628,-0.180,0.210
23.632,-0.190,0.215
23.636,-0.195,0.225
23.640,-0.190,0.210
23.644,-0.200,0.200
23.648,-0.195,0.195
23.652,-0.180,0.205
23.656,-0.165,0.215
23.660,-0.160,0.225
23.664,-0.160,0.235
23.668,-0.175,0.225
23.672,-0.190,0.215
23.676,-0.210,0.195
23.680,-0.195,0.185
23.684,-0.185,0.200
23.688,-0.175,0.210
23.692,-0.175,0.230
23.696,-0.175,0.220
23.700,-0.190,0.225
23.704,-0.205,0.205
23.708,-0.200,0.195
23.712,-0.210,0.195
23.716,-0.215,0.180
23.720,-0.220,0.180
23.724,-0.205,0.185
23.728,-0.200,0.165
23.732,-0.205,0.165
23.736,-0.210,0.160
23.740,-0.205,0.160
23.744,-0.215,0.165
23.748,-0.200,0.165
23.752,-0.185,0.185
23.756,-0.170,0.190
23.760,-0.145,0.195
23.764,-0.145,0.185
23.768,-0.150,0.190
23.772,-0.165,0.190
23.776,-0.185,0.195
23.780,-0.185,0.195
23.784,-0.185,0.195
23.788,-0.190,0.200
23.792,-0.185,0.190
23.796,-0.170,0.180
23.800,-0.180,0.180
23.804,-0.190,0.175
23.808,-0.200,0.175
23.812,-0.220,0.195
23.816,-0.215,0.210
23.820,-0.195,0.220
23.824,-0.175,0.230
23.828,-0.155,0.230
23.832,-0.160,0.235
23.836,-0.180,0.230
23.840,-0.180,0.230
23.844,-0.200,0.235
23.848,-0.190,0.240
23.852,-0.185,0.240
23.856,-0.170,0.240
23.860,-0.160,0.240
23.864,-0.160,0.230
23.868,-0.160,0.240
23.872,-0.165,0.225
23.876,-0.175,0.225
23.880,-0.180,0.235
23.884,-0.175,0.230
23.888,-0.170,0.230
23.892,-0.165,0.255
23.896,-0.170,0.270
23.900,-0.180,0.275
23.904,-0.180,0.255
23.908,-0.180,0.225
23.912,-0.185,0.225
23.916,-0.185,0.235
23.920,-0.175,0.245
23.924,-0.170,0.260
23.928,-0.150,0.260
23.932,-0.150,0.260
23.936,-0.145,0.255
23.940,-0.145,0.240
23.944,-0.125,0.250
23.948,-0.090,0.265
23.952,-0.030,0.275
23.956,0.060,0.270
23.960,0.225,0.230
23.964,0.410,0.140
23.968,0.575,0.020
23.972,0.655,-0.080
23.976,0.510,-0.155
23.980,0.175,-0.170
23.984,-0.200,-0.100
23.988,-0.460,0.035
23.992,-0.555,0.190
23.996,-0.555,0.305
24.000,-0.540,0.340
24.004,-0.460,0.430
24.008,-0.435,0.450
24.012,-0.415,0.460
24.016,-0.415,0.490
24.020,-0.430,0.525
24.024,-0.415,0.545
24.028,-0.365,0.570
24.032,-0.310,0.590
24.036,-0.285,0.605
24.040,-0.300,0.625
24.044,-0.335,0.645
24.048,-0.360,0.640
24.052,-0.360,0.620
24.056,-0.325,0.560
24.060,-0.295,0.480
24.064,-0.255,0.390
24.068,-0.225,0.290
24.072,-0.200,0.230
24.076,-0.190,0.185
24.080,-0.180,0.165
24.084,-0.180,0.155
24.088,-0.170,0.180
24.092,-0.175,0.185
24.096,-0.175,0.205
24.100,-0.170,0.215
24.104,-0.165,0.180
24.108,-0.170,0.160
24.112,-0.185,0.145
24.116,-0.175,0.170
24.120,-0.170,0.200
24.124,-0.155,0.205
24.128,-0.140,0.205
24.132,-0.150,0.185
24.136,-0.160,0.170
24.140,-0.170,0.155
24.144,-0.180,0.140
24.148,-0.180,0.155
24.152,-0.170,0.175
24.156,-0.150,0.180
24.160,-0.135,0.175
24.164,-0.135,0.145
24.168,-0.135,0.150
24.172,-0.135,0.140
24.176,-0.130,0.125
24.180,-0.125,0.130
24.184,-0.130,0.140
24.188,-0.115,0.130
24.192,-0.095,0.145
24.196,-0.080,0.125
24.200,-0.080,0.120
24.204,-0.045,0.090
24.208,-0.045,0.080
24.212,-0.040,0.065
24.216,-0.020,0.070
24.220,-0.010,0.090
24.224,0.025,0.085
24.228,0.050,0.075
24.232,0.065,0.050
24.236,0.070,0.015
24.240,0.080,-0.005
24.244,0.085,-0.015
24.248,0.100,-0.015
24.252,0.100,-0.005
24.256,0.115,0.005
24.260,0.125,0.015
24.264,0.130,0.010
24.268,0.125,0.010
24.272,0.090,0.005
24.276,0.065,0.010
24.280,0.055,0.045
24.284,0.035,0.070
24.288,0.015,0.100
24.292,0.015,0.135
24.296,-0.015,0.155
24.300,-0.035,0.160
24.304,-0.065,0.150
24.308,-0.085,0.150
24.312,-0.115,0.170
24.316,-0.130,0.205
24.320,-0.130,0.225
24.324,-0.135,0.245
24.328,-0.145,0.235
24.332,-0.150,0.230
24.336,-0.155,0.220
24.340,-0.170,0.205
24.344,-0.180,0.195
24.348,-0.170,0.210
24.352,-0.180,0.225
24.356,-0.190,0.235
24.360,-0.185,0.235
24.364,-0.210,0.240
24.368,-0.215,0.220
24.372,-0.215,0.205
24.376,-0.205,0.200
24.380,-0.210,0.215
24.384,-0.200,0.230
24.388,-0.210,0.240
24.392,-0.195,0.255
24.396,-0.190,0.255
24.400,-0.185,0.250
24.404,-0.210,0.225
24.408,-0.210,0.215
24.412,-0.200,0.210
24.416,-0.200,0.220
24.420,-0.190,0.235
24.424,-0.180,0.235
24.428,-0.170,0.240
24.432,-0.160,0.225
24.436,-0.165,0.220
24.440,-0.180,0.215
24.444,-0.180,0.205
24.448,-0.180,0.225
24.452,-0.180,0.230
24.456,-0.175,0.240
24.460,-0.155,0.240
24.464,-0.150,0.225
24.468,-0.150,0.225
24.472,-0.165,0.215
24.476,-0.175,0.215
24.480,-0.180,0.215
24.484,-0.175,0.220
