'Elapsed time','MLII','V1'
'seconds','mV','mV'
0.000,-0.690,-0.380
0.003,-0.690,-0.380
0.006,-0.690,-0.380
0.008,-0.690,-0.380
0.011,-0.690,-0.380
0.014,-0.690,-0.380
0.017,-0.690,-0.380
0.019,-0.670,-0.380
0.022,-0.635,-0.380
0.025,-0.600,-0.385
0.028,-0.535,-0.385
0.031,-0.420,-0.350
0.033,-0.240,-0.320
0.036,0.020,-0.280
0.039,0.375,-0.230
0.042,0.770,-0.220
0.044,1.130,-0.240
0.047,1.375,-0.330
0.050,1.435,-0.475
0.053,1.225,-0.645
0.056,0.720,-0.865
0.058,0.080,-1.040
0.061,-0.560,-1.160
0.064,-1.200,-1.155
0.067,-1.685,-1.070
0.069,-1.610,-0.940
0.072,-1.355,-0.800
0.075,-1.100,-0.675
0.078,-0.910,-0.580
0.081,-0.815,-0.515
0.083,-0.790,-0.490
0.086,-0.820,-0.465
0.089,-0.845,-0.450
0.092,-0.865,-0.440
0.094,-0.865,-0.430
0.097,-0.870,-0.420
0.100,-0.870,-0.415
0.103,-0.870,-0.400
0.106,-0.865,-0.385
0.108,-0.865,-0.370
0.111,-0.870,-0.360
0.114,-0.855,-0.345
0.117,-0.860,-0.350
0.119,-0.860,-0.355
0.122,-0.860,-0.355
0.125,-0.865,-0.365
0.128,-0.865,-0.360
0.131,-0.870,-0.355
0.133,-0.860,-0.345
0.136,-0.850,-0.360
0.139,-0.855,-0.345
0.142,-0.820,-0.340
0.144,-0.815,-0.345
0.147,-0.815,-0.320
0.150,-0.815,-0.330
0.153,-0.815,-0.325
0.156,-0.805,-0.335
0.158,-0.795,-0.325
0.161,-0.790,-0.340
0.164,-0.800,-0.350
0.167,-0.800,-0.345
0.169,-0.790,-0.345
0.172,-0.775,-0.335
0.175,-0.775,-0.325
0.178,-0.765,-0.315
0.181,-0.755,-0.310
0.183,-0.750,-0.305
0.186,-0.745,-0.315
0.189,-0.740,-0.335
0.192,-0.735,-0.340
0.194,-0.735,-0.335
0.197,-0.740,-0.335
0.200,-0.755,-0.320
0.203,-0.740,-0.325
0.206,-0.730,-0.310
0.208,-0.720,-0.305
0.211,-0.710,-0.320
0.214,-0.695,-0.315
0.217,-0.690,-0.320
0.219,-0.675,-0.315
0.222,-0.675,-0.330
0.225,-0.680,-0.320
0.228,-0.675,-0.320
0.231,-0.670,-0.320
0.233,-0.670,-0.325
0.236,-0.670,-0.325
0.239,-0.655,-0.315
0.242,-0.650,-0.315
0.244,-0.635,-0.305
0.247,-0.630,-0.300
0.250,-0.620,-0.300
0.253,-0.615,-0.305
0.256,-0.605,-0.305
0.258,-0.595,-0.320
0.261,-0.600,-0.315
0.264,-0.595,-0.320
0.267,-0.595,-0.320
0.269,-0.590,-0.300
0.272,-0.580,-0.290
0.275,-0.575,-0.285
0.278,-0.565,-0.275
0.281,-0.550,-0.280
0.283,-0.550,-0.295
0.286,-0.550,-0.305
0.289,-0.550,-0.310
0.292,-0.560,-0.310
0.294,-0.550,-0.320
0.297,-0.555,-0.315
0.300,-0.555,-0.315
0.303,-0.545,-0.310
0.306,-0.520,-0.315
0.308,-0.490,-0.310
0.311,-0.465,-0.300
0.314,-0.470,-0.305
0.317,-0.460,-0.315
0.319,-0.460,-0.320
0.322,-0.445,-0.325
0.325,-0.440,-0.330
0.328,-0.440,-0.355
0.331,-0.420,-0.350
0.333,-0.410,-0.360
0.336,-0.420,-0.370
0.339,-0.415,-0.360
0.342,-0.420,-0.350
0.344,-0.425,-0.360
0.347,-0.430,-0.355
0.350,-0.445,-0.375
0.353,-0.460,-0.365
0.356,-0.480,-0.385
0.358,-0.495,-0.405
0.361,-0.515,-0.405
0.364,-0.545,-0.410
0.367,-0.550,-0.395
0.369,-0.580,-0.400
0.372,-0.590,-0.380
0.375,-0.595,-0.385
0.378,-0.600,-0.380
0.381,-0.610,-0.380
0.383,-0.625,-0.390
0.386,-0.645,-0.395
0.389,-0.660,-0.405
0.392,-0.670,-0.395
0.394,-0.685,-0.395
0.397,-0.685,-0.400
0.400,-0.695,-0.400
0.403,-0.695,-0.395
0.406,-0.695,-0.390
0.408,-0.690,-0.385
0.411,-0.695,-0.375
0.414,-0.685,-0.370
0.417,-0.700,-0.375
0.419,-0.700,-0.385
0.422,-0.700,-0.390
0.425,-0.705,-0.400
0.428,-0.705,-0.405
0.431,-0.715,-0.420
0.433,-0.715,-0.415
0.436,-0.715,-0.405
0.439,-0.715,-0.380
0.442,-0.710,-0.365
0.444,-0.700,-0.360
0.447,-0.685,-0.365
0.450,-0.680,-0.370
0.453,-0.685,-0.375
0.456,-0.685,-0.405
0.458,-0.685,-0.400
0.461,-0.690,-0.400
0.464,-0.695,-0.410
0.467,-0.680,-0.390
0.469,-0.670,-0.385
0.472,-0.650,-0.385
0.475,-0.650,-0.380
0.478,-0.645,-0.365
0.481,-0.625,-0.350
0.483,-0.635,-0.370
0.486,-0.640,-0.365
0.489,-0.640,-0.380
0.492,-0.640,-0.385
0.494,-0.630,-0.400
0.497,-0.645,-0.400
0.500,-0.640,-0.400
0.503,-0.645,-0.390
0.506,-0.635,-0.370
0.508,-0.635,-0.365
0.511,-0.625,-0.365
0.514,-0.615,-0.365
0.517,-0.615,-0.365
0.519,-0.610,-0.380
0.522,-0.620,-0.395
0.525,-0.640,-0.405
0.528,-0.640,-0.410
0.531,-0.650,-0.400
0.533,-0.650,-0.395
0.536,-0.650,-0.380
0.539,-0.645,-0.375
0.542,-0.640,-0.385
0.544,-0.645,-0.385
0.547,-0.635,-0.375
0.550,-0.645,-0.390
0.553,-0.650,-0.390
0.556,-0.655,-0.390
0.558,-0.655,-0.385
0.561,-0.680,-0.405
0.564,-0.670,-0.405
0.567,-0.680,-0.400
0.569,-0.680,-0.395
0.572,-0.680,-0.385
0.575,-0.675,-0.365
0.578,-0.670,-0.360
0.581,-0.675,-0.360
0.583,-0.670,-0.370
0.586,-0.675,-0.380
0.589,-0.675,-0.395
0.592,-0.675,-0.395
0.594,-0.685,-0.395
0.597,-0.700,-0.410
0.600,-0.705,-0.395
0.603,-0.695,-0.390
0.606,-0.705,-0.385
0.608,-0.695,-0.365
0.611,-0.690,-0.370
0.614,-0.680,-0.370
0.617,-0.685,-0.380
0.619,-0.685,-0.390
0.622,-0.690,-0.395
0.625,-0.700,-0.400
0.628,-0.705,-0.400
0.631,-0.715,-0.405
0.633,-0.725,-0.400
0.636,-0.730,-0.400
0.639,-0.725,-0.390
0.642,-0.705,-0.395
0.644,-0.710,-0.385
0.647,-0.705,-0.365
0.650,-0.705,-0.370
0.653,-0.695,-0.375
0.656,-0.710,-0.395
0.658,-0.715,-0.405
0.661,-0.720,-0.405
0.664,-0.725,-0.405
0.667,-0.730,-0.400
0.669,-0.740,-0.395
0.672,-0.730,-0.380
0.675,-0.725,-0.380
0.678,-0.730,-0.370
0.681,-0.715,-0.365
0.683,-0.720,-0.380
0.686,-0.720,-0.375
0.689,-0.710,-0.385
0.692,-0.730,-0.400
0.694,-0.755,-0.405
0.697,-0.750,-0.405
0.700,-0.750,-0.405
0.703,-0.735,-0.400
0.706,-0.740,-0.385
0.708,-0.725,-0.380
0.711,-0.725,-0.365
0.714,-0.715,-0.370
0.717,-0.710,-0.380
0.719,-0.710,-0.385
0.722,-0.710,-0.390
0.725,-0.715,-0.400
0.728,-0.710,-0.405
0.731,-0.715,-0.410
0.733,-0.710,-0.395
0.736,-0.710,-0.390
0.739,-0.700,-0.370
0.742,-0.670,-0.360
0.744,-0.655,-0.355
0.747,-0.630,-0.355
0.750,-0.620,-0.360
0.753,-0.605,-0.355
0.756,-0.605,-0.345
0.758,-0.605,-0.335
0.761,-0.600,-0.330
0.764,-0.590,-0.340
0.767,-0.580,-0.350
0.769,-0.570,-0.365
0.772,-0.570,-0.380
0.775,-0.580,-0.400
0.778,-0.605,-0.415
0.781,-0.600,-0.420
0.783,-0.610,-0.410
0.786,-0.620,-0.425
0.789,-0.615,-0.430
0.792,-0.635,-0.425
0.794,-0.640,-0.435
0.797,-0.650,-0.430
0.800,-0.660,-0.420
0.803,-0.670,-0.405
0.806,-0.690,-0.380
0.808,-0.695,-0.375
0.811,-0.700,-0.370
0.814,-0.700,-0.365
0.817,-0.700,-0.385
0.819,-0.710,-0.395
0.822,-0.715,-0.405
0.825,-0.720,-0.405
0.828,-0.725,-0.420
0.831,-0.725,-0.420
0.833,-0.725,-0.420
0.836,-0.730,-0.405
0.839,-0.705,-0.400
0.842,-0.695,-0.390
0.844,-0.680,-0.375
0.847,-0.630,-0.380
0.850,-0.590,-0.365
0.853,-0.515,-0.340
0.856,-0.360,-0.300
0.858,-0.100,-0.260
0.861,0.245,-0.220
0.864,0.675,-0.215
0.867,1.070,-0.250
0.869,1.355,-0.345
0.872,1.450,-0.470
0.875,1.300,-0.655
0.878,0.860,-0.835
0.881,0.220,-1.020
0.883,-0.420,-1.150
0.886,-1.060,-1.200
0.889,-1.485,-1.170
0.892,-1.520,-1.070
0.894,-1.345,-0.950
0.897,-1.115,-0.835
0.900,-0.940,-0.720
0.903,-0.825,-0.625
0.906,-0.815,-0.560
0.908,-0.830,-0.515
0.911,-0.835,-0.480
0.914,-0.845,-0.450
0.917,-0.835,-0.435
0.919,-0.840,-0.415
0.922,-0.835,-0.395
0.925,-0.830,-0.400
0.928,-0.840,-0.390
0.931,-0.845,-0.390
0.933,-0.860,-0.385
0.936,-0.865,-0.380
0.939,-0.855,-0.375
0.942,-0.875,-0.345
0.944,-0.865,-0.335
0.947,-0.850,-0.320
0.950,-0.845,-0.325
0.953,-0.845,-0.335
0.956,-0.850,-0.350
0.958,-0.840,-0.365
0.961,-0.840,-0.360
0.964,-0.845,-0.360
0.967,-0.840,-0.345
0.969,-0.835,-0.340
0.972,-0.830,-0.325
0.975,-0.815,-0.330
0.978,-0.805,-0.310
0.981,-0.795,-0.315
0.983,-0.775,-0.325
0.986,-0.785,-0.330
0.989,-0.800,-0.330
0.992,-0.795,-0.330
0.994,-0.795,-0.335
0.997,-0.790,-0.340
1.000,-0.780,-0.340
1.003,-0.775,-0.330
1.006,-0.775,-0.325
1.008,-0.775,-0.315
1.011,-0.760,-0.315
1.014,-0.740,-0.300
1.017,-0.735,-0.305
1.019,-0.735,-0.295
1.022,-0.730,-0.305
1.025,-0.730,-0.310
1.028,-0.720,-0.330
1.031,-0.730,-0.335
1.033,-0.730,-0.330
1.036,-0.730,-0.335
1.039,-0.710,-0.310
1.042,-0.705,-0.305
1.044,-0.690,-0.295
1.047,-0.670,-0.300
1.050,-0.655,-0.305
1.053,-0.655,-0.310
1.056,-0.650,-0.320
1.058,-0.650,-0.320
1.061,-0.660,-0.320
1.064,-0.655,-0.325
1.067,-0.635,-0.315
1.069,-0.640,-0.320
1.072,-0.635,-0.310
1.075,-0.610,-0.315
1.078,-0.605,-0.295
1.081,-0.590,-0.290
1.083,-0.595,-0.285
1.086,-0.585,-0.285
1.089,-0.570,-0.290
1.092,-0.570,-0.310
1.094,-0.575,-0.320
1.097,-0.575,-0.330
1.100,-0.585,-0.320
1.103,-0.585,-0.305
1.106,-0.575,-0.290
1.108,-0.575,-0.285
1.111,-0.555,-0.290
1.114,-0.545,-0.285
1.117,-0.535,-0.285
1.119,-0.525,-0.295
1.122,-0.520,-0.305
1.125,-0.525,-0.305
1.128,-0.525,-0.320
1.131,-0.505,-0.320
1.133,-0.515,-0.315
1.136,-0.495,-0.315
1.139,-0.475,-0.310
1.142,-0.465,-0.315
1.144,-0.445,-0.315
1.147,-0.435,-0.310
1.150,-0.420,-0.335
1.153,-0.410,-0.310
1.156,-0.400,-0.345
1.158,-0.395,-0.350
1.161,-0.405,-0.365
1.164,-0.415,-0.380
1.167,-0.415,-0.395
1.169,-0.420,-0.395
1.172,-0.440,-0.395
1.175,-0.440,-0.385
1.178,-0.460,-0.380
1.181,-0.470,-0.370
1.183,-0.480,-0.370
1.186,-0.500,-0.375
1.189,-0.510,-0.390
1.192,-0.545,-0.400
1.194,-0.575,-0.420
1.197,-0.590,-0.415
1.200,-0.610,-0.405
1.203,-0.625,-0.395
1.206,-0.645,-0.395
1.208,-0.640,-0.390
1.211,-0.640,-0.390
1.214,-0.630,-0.375
1.217,-0.630,-0.390
1.219,-0.645,-0.385
1.222,-0.650,-0.400
1.225,-0.660,-0.410
1.228,-0.680,-0.400
1.231,-0.705,-0.400
1.233,-0.710,-0.405
1.236,-0.705,-0.400
1.239,-0.700,-0.395
1.242,-0.695,-0.395
1.244,-0.700,-0.390
1.247,-0.680,-0.395
1.250,-0.690,-0.380
1.253,-0.700,-0.380
1.256,-0.705,-0.385
1.258,-0.705,-0.385
1.261,-0.725,-0.400
1.264,-0.720,-0.410
1.267,-0.720,-0.405
1.269,-0.705,-0.400
1.272,-0.690,-0.390
1.275,-0.685,-0.385
1.278,-0.680,-0.380
1.281,-0.670,-0.370
1.283,-0.670,-0.380
1.286,-0.660,-0.380
1.289,-0.660,-0.390
1.292,-0.665,-0.395
1.294,-0.660,-0.395
1.297,-0.670,-0.400
1.300,-0.665,-0.395
1.303,-0.660,-0.385
1.306,-0.645,-0.385
1.308,-0.630,-0.395
1.311,-0.625,-0.385
1.314,-0.625,-0.380
1.317,-0.615,-0.375
1.319,-0.630,-0.380
1.322,-0.625,-0.370
1.325,-0.640,-0.380
1.328,-0.630,-0.385
1.331,-0.630,-0.405
1.333,-0.635,-0.405
1.336,-0.630,-0.400
1.339,-0.620,-0.395
1.342,-0.625,-0.380
1.344,-0.630,-0.365
1.347,-0.615,-0.360
1.350,-0.610,-0.375
1.353,-0.615,-0.380
1.356,-0.620,-0.385
1.358,-0.625,-0.395
1.361,-0.640,-0.400
1.364,-0.645,-0.400
1.367,-0.650,-0.395
1.369,-0.650,-0.390
1.372,-0.645,-0.375
1.375,-0.645,-0.375
1.378,-0.640,-0.380
1.381,-0.630,-0.380
1.383,-0.635,-0.380
1.386,-0.650,-0.385
1.389,-0.655,-0.380
1.392,-0.675,-0.395
1.394,-0.695,-0.390
1.397,-0.685,-0.395
1.400,-0.695,-0.385
1.403,-0.705,-0.390
1.406,-0.705,-0.390
1.408,-0.690,-0.385
1.411,-0.685,-0.375
1.414,-0.685,-0.365
1.417,-0.680,-0.380
1.419,-0.680,-0.375
1.422,-0.700,-0.380
1.425,-0.710,-0.385
1.428,-0.720,-0.400
1.431,-0.720,-0.405
1.433,-0.725,-0.405
1.436,-0.725,-0.395
1.439,-0.730,-0.395
1.442,-0.740,-0.380
1.444,-0.715,-0.375
1.447,-0.710,-0.365
1.450,-0.710,-0.370
1.453,-0.715,-0.380
1.456,-0.715,-0.390
1.458,-0.725,-0.395
1.461,-0.740,-0.410
1.464,-0.755,-0.405
1.467,-0.755,-0.385
1.469,-0.745,-0.375
1.472,-0.750,-0.375
1.475,-0.740,-0.365
1.478,-0.730,-0.380
1.481,-0.725,-0.370
1.483,-0.710,-0.380
1.486,-0.715,-0.370
1.489,-0.730,-0.380
1.492,-0.740,-0.380
1.494,-0.755,-0.390
1.497,-0.750,-0.410
1.500,-0.755,-0.400
1.503,-0.760,-0.395
1.506,-0.760,-0.405
1.508,-0.750,-0.385
1.511,-0.755,-0.380
1.514,-0.740,-0.370
1.517,-0.730,-0.375
1.519,-0.715,-0.375
1.522,-0.715,-0.395
1.525,-0.725,-0.400
1.528,-0.730,-0.415
1.531,-0.740,-0.395
1.533,-0.745,-0.390
1.536,-0.755,-0.385
1.539,-0.745,-0.385
1.542,-0.735,-0.365
1.544,-0.745,-0.370
1.547,-0.730,-0.365
1.550,-0.730,-0.375
1.553,-0.725,-0.390
1.556,-0.720,-0.385
1.558,-0.725,-0.385
1.561,-0.725,-0.390
1.564,-0.735,-0.390
1.567,-0.725,-0.380
1.569,-0.710,-0.400
1.572,-0.695,-0.380
1.575,-0.680,-0.385
1.578,-0.665,-0.365
1.581,-0.650,-0.340
1.583,-0.640,-0.345
1.586,-0.630,-0.330
1.589,-0.615,-0.335
1.592,-0.610,-0.340
1.594,-0.600,-0.335
1.597,-0.595,-0.355
1.600,-0.600,-0.350
1.603,-0.600,-0.360
1.606,-0.600,-0.370
1.608,-0.605,-0.365
1.611,-0.625,-0.390
1.614,-0.630,-0.395
1.617,-0.635,-0.405
1.619,-0.645,-0.420
1.622,-0.645,-0.430
1.625,-0.635,-0.430
1.628,-0.645,-0.425
1.631,-0.655,-0.420
1.633,-0.670,-0.410
1.636,-0.660,-0.405
1.639,-0.680,-0.380
1.642,-0.695,-0.375
1.644,-0.705,-0.370
1.647,-0.710,-0.380
1.650,-0.720,-0.365
1.653,-0.730,-0.385
1.656,-0.735,-0.385
1.658,-0.740,-0.405
1.661,-0.750,-0.415
1.664,-0.740,-0.410
1.667,-0.745,-0.410
1.669,-0.715,-0.420
1.672,-0.700,-0.405
1.675,-0.665,-0.380
1.678,-0.625,-0.360
1.681,-0.560,-0.350
1.683,-0.470,-0.335
1.686,-0.325,-0.305
1.689,-0.075,-0.285
1.692,0.230,-0.260
1.694,0.625,-0.235
1.697,0.995,-0.245
1.700,1.295,-0.290
1.703,1.440,-0.370
1.706,1.405,-0.510
1.708,1.160,-0.655
1.711,0.675,-0.810
1.714,0.035,-0.970
1.717,-0.605,-1.085
1.719,-1.245,-1.115
1.722,-1.590,-1.085
1.725,-1.585,-0.990
1.728,-1.375,-0.880
1.731,-1.165,-0.785
1.733,-0.985,-0.680
1.736,-0.885,-0.605
1.739,-0.855,-0.545
1.742,-0.870,-0.505
1.744,-0.885,-0.480
1.747,-0.885,-0.435
1.750,-0.870,-0.415
1.753,-0.840,-0.400
1.756,-0.835,-0.400
1.758,-0.835,-0.395
1.761,-0.845,-0.410
1.764,-0.860,-0.410
1.767,-0.875,-0.400
1.769,-0.890,-0.385
1.772,-0.880,-0.360
1.775,-0.875,-0.340
1.778,-0.865,-0.340
1.781,-0.855,-0.340
1.783,-0.835,-0.340
1.786,-0.845,-0.345
1.789,-0.850,-0.355
1.792,-0.860,-0.355
1.794,-0.865,-0.350
1.797,-0.870,-0.360
1.800,-0.860,-0.345
1.803,-0.860,-0.345
1.806,-0.850,-0.340
1.808,-0.835,-0.335
1.811,-0.825,-0.330
1.814,-0.810,-0.335
1.817,-0.800,-0.330
1.819,-0.800,-0.320
1.822,-0.805,-0.325
1.825,-0.810,-0.325
1.828,-0.815,-0.330
1.831,-0.810,-0.345
1.833,-0.805,-0.335
1.836,-0.800,-0.340
1.839,-0.790,-0.345
1.842,-0.780,-0.330
1.844,-0.775,-0.330
1.847,-0.760,-0.315
1.850,-0.755,-0.310
1.853,-0.745,-0.315
1.856,-0.745,-0.325
1.858,-0.730,-0.330
1.861,-0.720,-0.340
1.864,-0.725,-0.330
1.867,-0.730,-0.340
1.869,-0.715,-0.335
1.872,-0.715,-0.310
1.875,-0.705,-0.290
1.878,-0.705,-0.300
1.881,-0.685,-0.300
1.883,-0.685,-0.315
1.886,-0.675,-0.325
1.889,-0.675,-0.325
1.892,-0.675,-0.315
1.894,-0.675,-0.320
1.897,-0.670,-0.315
1.900,-0.665,-0.315
1.903,-0.650,-0.305
1.906,-0.640,-0.315
1.908,-0.630,-0.305
1.911,-0.625,-0.320
1.914,-0.615,-0.300
1.917,-0.615,-0.300
1.919,-0.610,-0.300
1.922,-0.600,-0.285
1.925,-0.600,-0.310
1.928,-0.610,-0.315
1.931,-0.605,-0.325
1.933,-0.605,-0.330
1.936,-0.595,-0.315
1.939,-0.605,-0.310
1.942,-0.605,-0.290
1.944,-0.595,-0.275
1.947,-0.575,-0.265
1.950,-0.565,-0.280
1.953,-0.565,-0.290
1.956,-0.575,-0.285
1.958,-0.575,-0.310
1.961,-0.580,-0.320
1.964,-0.585,-0.315
1.967,-0.585,-0.315
1.969,-0.570,-0.300
1.972,-0.560,-0.295
1.975,-0.550,-0.285
1.978,-0.540,-0.290
1.981,-0.520,-0.290
1.983,-0.495,-0.290
1.986,-0.485,-0.290
1.989,-0.490,-0.315
1.992,-0.490,-0.315
1.994,-0.470,-0.315
1.997,-0.475,-0.325
2.000,-0.480,-0.325
2.003,-0.470,-0.345
2.006,-0.440,-0.340
2.008,-0.420,-0.340
2.011,-0.430,-0.345
2.014,-0.420,-0.350
2.017,-0.435,-0.355
2.019,-0.455,-0.360
2.022,-0.485,-0.370
2.025,-0.505,-0.370
2.028,-0.515,-0.390
2.031,-0.530,-0.390
2.033,-0.555,-0.395
2.036,-0.585,-0.395
2.039,-0.595,-0.375
2.042,-0.620,-0.365
2.044,-0.605,-0.370
2.047,-0.615,-0.370
2.050,-0.620,-0.370
2.053,-0.630,-0.390
2.056,-0.635,-0.395
2.058,-0.645,-0.395
2.061,-0.665,-0.410
2.064,-0.680,-0.400
2.067,-0.690,-0.400
2.069,-0.705,-0.380
2.072,-0.705,-0.380
2.075,-0.710,-0.375
2.078,-0.715,-0.375
2.081,-0.705,-0.375
2.083,-0.695,-0.390
2.086,-0.715,-0.385
2.089,-0.710,-0.390
2.092,-0.715,-0.395
2.094,-0.730,-0.400
2.097,-0.725,-0.410
2.100,-0.730,-0.400
2.103,-0.720,-0.385
2.106,-0.720,-0.385
2.108,-0.720,-0.370
2.111,-0.705,-0.360
2.114,-0.695,-0.355
2.117,-0.690,-0.375
2.119,-0.690,-0.365
2.122,-0.680,-0.395
2.125,-0.675,-0.395
2.128,-0.675,-0.405
2.131,-0.680,-0.405
2.133,-0.680,-0.390
2.136,-0.680,-0.385
2.139,-0.675,-0.370
2.142,-0.670,-0.360
2.144,-0.660,-0.365
2.147,-0.645,-0.355
2.150,-0.635,-0.370
2.153,-0.635,-0.385
2.156,-0.640,-0.375
2.158,-0.650,-0.385
2.161,-0.655,-0.390
2.164,-0.655,-0.380
2.167,-0.650,-0.385
2.169,-0.645,-0.380
2.172,-0.640,-0.385
2.175,-0.625,-0.365
2.178,-0.605,-0.370
2.181,-0.600,-0.360
2.183,-0.595,-0.355
2.186,-0.610,-0.350
2.189,-0.610,-0.365
2.192,-0.625,-0.370
2.194,-0.630,-0.385
2.197,-0.635,-0.400
2.200,-0.650,-0.400
2.203,-0.655,-0.385
2.206,-0.645,-0.385
2.208,-0.650,-0.375
2.211,-0.640,-0.355
2.214,-0.640,-0.365
2.217,-0.625,-0.360
2.219,-0.620,-0.365
2.222,-0.620,-0.395
2.225,-0.635,-0.395
2.228,-0.645,-0.405
2.231,-0.660,-0.405
2.233,-0.675,-0.395
2.236,-0.685,-0.385
2.239,-0.685,-0.375
2.242,-0.680,-0.370
2.244,-0.675,-0.365
2.247,-0.680,-0.370
2.250,-0.675,-0.370
2.253,-0.675,-0.370
2.256,-0.690,-0.385
2.258,-0.695,-0.380
2.261,-0.695,-0.385
2.264,-0.695,-0.385
2.267,-0.695,-0.395
2.269,-0.705,-0.405
2.272,-0.715,-0.390
2.275,-0.715,-0.385
2.278,-0.700,-0.375
2.281,-0.695,-0.370
2.283,-0.700,-0.370
2.286,-0.700,-0.360
2.289,-0.715,-0.365
2.292,-0.725,-0.390
2.294,-0.720,-0.400
2.297,-0.725,-0.405
2.300,-0.750,-0.405
2.303,-0.745,-0.395
2.306,-0.730,-0.380
2.308,-0.730,-0.370
2.311,-0.730,-0.365
2.314,-0.705,-0.350
2.317,-0.720,-0.365
2.319,-0.720,-0.385
2.322,-0.720,-0.385
2.325,-0.730,-0.395
2.328,-0.735,-0.395
2.331,-0.745,-0.390
2.333,-0.745,-0.390
2.336,-0.740,-0.390
2.339,-0.740,-0.390
2.342,-0.740,-0.390
2.344,-0.735,-0.380
2.347,-0.725,-0.365
2.350,-0.725,-0.365
2.353,-0.720,-0.365
2.356,-0.730,-0.375
2.358,-0.730,-0.385
2.361,-0.745,-0.395
2.364,-0.745,-0.400
2.367,-0.755,-0.400
2.369,-0.750,-0.400
2.372,-0.750,-0.390
2.375,-0.755,-0.380
2.378,-0.735,-0.370
2.381,-0.710,-0.355
2.383,-0.710,-0.360
2.386,-0.705,-0.375
2.389,-0.710,-0.375
2.392,-0.720,-0.385
2.394,-0.720,-0.395
2.397,-0.735,-0.410
2.400,-0.745,-0.395
2.403,-0.730,-0.395
2.406,-0.720,-0.380
2.408,-0.710,-0.380
2.411,-0.705,-0.370
2.414,-0.680,-0.375
2.417,-0.665,-0.365
2.419,-0.650,-0.370
2.422,-0.650,-0.370
2.425,-0.640,-0.375
2.428,-0.620,-0.360
2.431,-0.625,-0.365
2.433,-0.610,-0.350
2.436,-0.595,-0.345
2.439,-0.595,-0.340
2.442,-0.575,-0.330
2.444,-0.565,-0.340
2.447,-0.560,-0.350
2.450,-0.575,-0.360
2.453,-0.595,-0.385
2.456,-0.605,-0.405
2.458,-0.625,-0.430
2.461,-0.635,-0.435
2.464,-0.640,-0.445
2.467,-0.640,-0.430
2.469,-0.635,-0.420
2.472,-0.640,-0.415
2.475,-0.640,-0.400
2.478,-0.650,-0.385
2.481,-0.665,-0.380
2.483,-0.665,-0.380
2.486,-0.685,-0.375
2.489,-0.710,-0.390
2.492,-0.720,-0.390
2.494,-0.740,-0.390
2.497,-0.745,-0.400
2.500,-0.745,-0.415
2.503,-0.730,-0.405
2.506,-0.715,-0.395
2.508,-0.705,-0.395
2.511,-0.710,-0.395
2.514,-0.695,-0.385
2.517,-0.660,-0.375
2.519,-0.630,-0.375
2.522,-0.585,-0.370
2.525,-0.530,-0.360
2.528,-0.430,-0.350
2.531,-0.250,-0.340
2.533,0.010,-0.280
2.536,0.340,-0.250
2.539,0.745,-0.215
2.542,1.140,-0.225
2.544,1.390,-0.300
2.547,1.480,-0.405
2.550,1.330,-0.570
2.553,0.890,-0.745
2.556,0.250,-0.915
2.558,-0.390,-1.050
2.561,-1.030,-1.095
2.564,-1.670,-1.055
2.567,-1.700,-0.970
2.569,-1.495,-0.865
2.572,-1.220,-0.755
2.575,-0.990,-0.660
2.578,-0.870,-0.580
2.581,-0.825,-0.525
2.583,-0.840,-0.500
2.586,-0.865,-0.460
2.589,-0.875,-0.455
2.592,-0.865,-0.435
2.594,-0.835,-0.425
2.597,-0.820,-0.430
2.600,-0.815,-0.410
2.603,-0.830,-0.400
2.606,-0.835,-0.390
2.608,-0.835,-0.365
2.611,-0.840,-0.345
2.614,-0.840,-0.340
2.617,-0.830,-0.360
2.619,-0.825,-0.355
2.622,-0.830,-0.360
2.625,-0.845,-0.365
2.628,-0.845,-0.370
2.631,-0.840,-0.355
2.633,-0.840,-0.355
2.636,-0.830,-0.350
2.639,-0.825,-0.345
2.642,-0.800,-0.355
2.644,-0.795,-0.345
2.647,-0.785,-0.325
2.650,-0.780,-0.330
2.653,-0.795,-0.320
2.656,-0.800,-0.325
2.658,-0.800,-0.320
2.661,-0.790,-0.330
2.664,-0.785,-0.350
2.667,-0.790,-0.355
2.669,-0.785,-0.345
2.672,-0.790,-0.350
2.675,-0.770,-0.345
2.678,-0.765,-0.320
2.681,-0.755,-0.305
2.683,-0.745,-0.310
2.686,-0.725,-0.325
2.689,-0.725,-0.330
2.692,-0.725,-0.340
2.694,-0.730,-0.335
2.697,-0.730,-0.350
2.700,-0.725,-0.345
2.703,-0.715,-0.335
2.706,-0.705,-0.315
2.708,-0.695,-0.330
2.711,-0.685,-0.320
2.714,-0.670,-0.320
2.717,-0.660,-0.320
2.719,-0.645,-0.325
2.722,-0.640,-0.320
2.725,-0.645,-0.315
2.728,-0.650,-0.305
2.731,-0.640,-0.330
2.733,-0.640,-0.330
2.736,-0.635,-0.335
2.739,-0.620,-0.335
2.742,-0.615,-0.320
2.744,-0.620,-0.310
2.747,-0.610,-0.295
2.750,-0.600,-0.295
2.753,-0.605,-0.295
2.756,-0.595,-0.310
2.758,-0.595,-0.310
2.761,-0.595,-0.325
2.764,-0.595,-0.335
2.767,-0.590,-0.330
2.769,-0.580,-0.325
2.772,-0.570,-0.320
2.775,-0.555,-0.290
2.778,-0.555,-0.290
2.781,-0.535,-0.290
2.783,-0.545,-0.295
2.786,-0.555,-0.305
2.789,-0.565,-0.310
2.792,-0.565,-0.305
2.794,-0.565,-0.320
2.797,-0.575,-0.310
2.800,-0.555,-0.310
2.803,-0.545,-0.310
2.806,-0.525,-0.315
2.808,-0.515,-0.300
2.811,-0.505,-0.300
2.814,-0.490,-0.310
2.817,-0.490,-0.310
2.819,-0.490,-0.315
2.822,-0.485,-0.330
2.825,-0.460,-0.335
2.828,-0.445,-0.335
2.831,-0.460,-0.340
2.833,-0.455,-0.355
2.836,-0.435,-0.345
2.839,-0.440,-0.345
2.842,-0.440,-0.355
2.844,-0.440,-0.330
2.847,-0.445,-0.350
2.850,-0.450,-0.360
2.853,-0.455,-0.365
2.856,-0.470,-0.380
2.858,-0.485,-0.390
2.861,-0.510,-0.400
2.864,-0.530,-0.400
2.867,-0.560,-0.380
2.869,-0.570,-0.380
2.872,-0.570,-0.375
2.875,-0.580,-0.370
2.878,-0.580,-0.365
2.881,-0.595,-0.365
2.883,-0.610,-0.400
2.886,-0.630,-0.390
2.889,-0.640,-0.410
2.892,-0.675,-0.405
2.894,-0.680,-0.415
2.897,-0.675,-0.400
2.900,-0.680,-0.390
2.903,-0.680,-0.395
2.906,-0.670,-0.385
2.908,-0.675,-0.375
2.911,-0.660,-0.365
2.914,-0.675,-0.370
2.917,-0.680,-0.375
2.919,-0.695,-0.385
2.922,-0.685,-0.385
2.925,-0.695,-0.390
2.928,-0.710,-0.410
2.931,-0.710,-0.410
2.933,-0.700,-0.400
2.936,-0.710,-0.385
2.939,-0.695,-0.365
2.942,-0.690,-0.370
2.944,-0.680,-0.360
2.947,-0.660,-0.365
2.950,-0.660,-0.385
2.953,-0.665,-0.400
2.956,-0.665,-0.400
2.958,-0.670,-0.405
2.961,-0.665,-0.400
2.964,-0.670,-0.390
2.967,-0.675,-0.380
2.969,-0.660,-0.385
2.972,-0.645,-0.375
2.975,-0.625,-0.370
2.978,-0.630,-0.375
2.981,-0.620,-0.360
2.983,-0.610,-0.370
2.986,-0.605,-0.380
2.989,-0.620,-0.385
2.992,-0.620,-0.380
2.994,-0.630,-0.395
2.997,-0.620,-0.410
3.000,-0.620,-0.400
3.003,-0.605,-0.390
3.006,-0.595,-0.380
3.008,-0.595,-0.375
3.011,-0.605,-0.365
3.014,-0.605,-0.365
3.017,-0.585,-0.370
3.019,-0.600,-0.385
3.022,-0.600,-0.405
3.025,-0.605,-0.400
3.028,-0.590,-0.405
3.031,-0.600,-0.405
3.033,-0.610,-0.400
3.036,-0.615,-0.385
3.039,-0.610,-0.380
3.042,-0.610,-0.370
3.044,-0.610,-0.365
3.047,-0.600,-0.370
3.050,-0.615,-0.375
3.053,-0.620,-0.380
3.056,-0.630,-0.390
3.058,-0.630,-0.400
3.061,-0.635,-0.395
3.064,-0.635,-0.395
3.067,-0.640,-0.390
3.069,-0.635,-0.395
3.072,-0.640,-0.380
3.075,-0.645,-0.380
3.078,-0.645,-0.365
3.081,-0.645,-0.350
3.083,-0.645,-0.365
3.086,-0.655,-0.370
3.089,-0.670,-0.390
3.092,-0.675,-0.395
3.094,-0.670,-0.410
3.097,-0.680,-0.410
3.100,-0.685,-0.405
3.103,-0.685,-0.395
3.106,-0.700,-0.380
3.108,-0.680,-0.370
3.111,-0.675,-0.375
3.114,-0.670,-0.365
3.117,-0.675,-0.370
3.119,-0.670,-0.385
3.122,-0.675,-0.400
3.125,-0.690,-0.395
3.128,-0.685,-0.400
3.131,-0.705,-0.390
3.133,-0.700,-0.390
3.136,-0.705,-0.385
3.139,-0.685,-0.375
3.142,-0.690,-0.385
3.144,-0.680,-0.375
3.147,-0.680,-0.375
3.150,-0.685,-0.380
3.153,-0.685,-0.375
3.156,-0.690,-0.385
3.158,-0.695,-0.395
3.161,-0.705,-0.405
3.164,-0.710,-0.395
3.167,-0.715,-0.405
3.169,-0.705,-0.395
3.172,-0.705,-0.385
3.175,-0.700,-0.375
3.178,-0.700,-0.380
3.181,-0.695,-0.365
3.183,-0.705,-0.370
3.186,-0.700,-0.380
3.189,-0.695,-0.395
3.192,-0.700,-0.395
3.194,-0.710,-0.400
3.197,-0.720,-0.400
3.200,-0.715,-0.385
3.203,-0.725,-0.385
3.206,-0.715,-0.370
3.208,-0.705,-0.380
3.211,-0.695,-0.375
3.214,-0.700,-0.375
3.217,-0.710,-0.375
3.219,-0.705,-0.370
3.222,-0.715,-0.380
3.225,-0.715,-0.390
3.228,-0.720,-0.385
3.231,-0.715,-0.390
3.233,-0.720,-0.410
3.236,-0.710,-0.400
3.239,-0.700,-0.395
3.242,-0.685,-0.365
3.244,-0.675,-0.360
3.247,-0.655,-0.355
3.250,-0.655,-0.355
3.253,-0.640,-0.355
3.256,-0.630,-0.370
3.258,-0.620,-0.370
3.261,-0.605,-0.370
3.264,-0.595,-0.360
3.267,-0.585,-0.340
3.269,-0.575,-0.325
3.272,-0.570,-0.305
3.275,-0.540,-0.315
3.278,-0.530,-0.325
3.281,-0.530,-0.350
3.283,-0.545,-0.370
3.286,-0.570,-0.395
3.289,-0.585,-0.410
3.292,-0.595,-0.420
3.294,-0.615,-0.425
3.297,-0.610,-0.430
3.300,-0.605,-0.415
3.303,-0.610,-0.405
3.306,-0.615,-0.405
3.308,-0.625,-0.385
3.311,-0.640,-0.370
3.314,-0.655,-0.370
3.317,-0.690,-0.360
3.319,-0.715,-0.375
3.322,-0.710,-0.385
3.325,-0.715,-0.410
3.328,-0.710,-0.415
3.331,-0.715,-0.420
3.333,-0.705,-0.410
3.336,-0.700,-0.405
3.339,-0.675,-0.390
3.342,-0.655,-0.385
3.344,-0.625,-0.370
3.347,-0.600,-0.385
3.350,-0.545,-0.375
3.353,-0.485,-0.365
3.356,-0.375,-0.335
3.358,-0.170,-0.310
3.361,0.095,-0.265
3.364,0.430,-0.235
3.367,0.815,-0.230
3.369,1.160,-0.265
3.372,1.370,-0.345
3.375,1.400,-0.455
3.378,1.220,-0.585
3.381,0.790,-0.730
3.383,0.150,-0.905
3.386,-0.490,-1.035
3.389,-1.130,-1.090
3.392,-1.535,-1.080
3.394,-1.550,-0.995
3.397,-1.385,-0.875
3.400,-1.160,-0.765
3.403,-0.965,-0.655
3.406,-0.840,-0.580
3.408,-0.815,-0.530
3.411,-0.825,-0.495
3.414,-0.835,-0.465
3.417,-0.840,-0.450
3.419,-0.830,-0.435
3.422,-0.820,-0.415
3.425,-0.805,-0.415
3.428,-0.805,-0.395
3.431,-0.805,-0.390
3.433,-0.810,-0.390
3.436,-0.810,-0.385
3.439,-0.815,-0.375
3.442,-0.815,-0.370
3.444,-0.815,-0.355
3.447,-0.805,-0.330
3.450,-0.800,-0.335
3.453,-0.800,-0.340
3.456,-0.805,-0.350
3.458,-0.805,-0.365
3.461,-0.815,-0.370
3.464,-0.805,-0.375
3.467,-0.810,-0.365
3.469,-0.800,-0.360
3.472,-0.805,-0.330
3.475,-0.780,-0.325
3.478,-0.775,-0.310
3.481,-0.765,-0.315
3.483,-0.770,-0.335
3.486,-0.765,-0.345
3.489,-0.755,-0.340
3.492,-0.765,-0.345
3.494,-0.765,-0.350
3.497,-0.775,-0.345
3.500,-0.770,-0.335
3.503,-0.765,-0.325
3.506,-0.755,-0.325
3.508,-0.735,-0.325
3.511,-0.720,-0.315
3.514,-0.710,-0.310
3.517,-0.715,-0.315
3.519,-0.695,-0.310
3.522,-0.700,-0.315
3.525,-0.705,-0.315
3.528,-0.695,-0.340
3.531,-0.700,-0.325
3.533,-0.685,-0.340
3.536,-0.670,-0.335
3.539,-0.675,-0.320
3.542,-0.670,-0.305
3.544,-0.660,-0.285
3.547,-0.645,-0.285
3.550,-0.640,-0.305
3.553,-0.640,-0.310
3.556,-0.630,-0.320
3.558,-0.625,-0.325
3.561,-0.635,-0.320
3.564,-0.625,-0.310
3.567,-0.615,-0.315
3.569,-0.605,-0.310
3.572,-0.590,-0.310
3.575,-0.575,-0.290
3.578,-0.560,-0.295
3.581,-0.565,-0.300
3.583,-0.560,-0.285
3.586,-0.560,-0.290
3.589,-0.565,-0.290
3.592,-0.550,-0.290
3.594,-0.565,-0.305
3.597,-0.560,-0.295
3.600,-0.550,-0.305
3.603,-0.545,-0.305
3.606,-0.535,-0.300
3.608,-0.530,-0.285
3.611,-0.515,-0.265
3.614,-0.510,-0.275
3.617,-0.515,-0.275
3.619,-0.515,-0.275
3.622,-0.510,-0.285
3.625,-0.515,-0.310
3.628,-0.510,-0.305
3.631,-0.510,-0.305
3.633,-0.500,-0.305
3.636,-0.505,-0.300
3.639,-0.495,-0.290
3.642,-0.475,-0.290
3.644,-0.470,-0.280
3.647,-0.445,-0.290
3.650,-0.435,-0.295
3.653,-0.425,-0.315
3.656,-0.420,-0.310
3.658,-0.420,-0.330
3.661,-0.420,-0.335
3.664,-0.410,-0.335
3.667,-0.415,-0.330
3.669,-0.410,-0.335
3.672,-0.400,-0.345
3.675,-0.390,-0.350
3.678,-0.405,-0.355
3.681,-0.420,-0.360
3.683,-0.425,-0.365
3.686,-0.445,-0.365
3.689,-0.475,-0.380
3.692,-0.490,-0.390
3.694,-0.515,-0.385
3.697,-0.520,-0.390
3.700,-0.540,-0.400
3.703,-0.565,-0.385
3.706,-0.580,-0.385
3.708,-0.580,-0.380
3.711,-0.580,-0.370
3.714,-0.580,-0.380
3.717,-0.600,-0.375
3.719,-0.610,-0.390
3.722,-0.620,-0.400
3.725,-0.635,-0.400
3.728,-0.635,-0.395
3.731,-0.655,-0.390
3.733,-0.655,-0.390
3.736,-0.660,-0.385
3.739,-0.655,-0.370
3.742,-0.660,-0.370
3.744,-0.660,-0.370
3.747,-0.655,-0.370
3.750,-0.670,-0.395
3.753,-0.660,-0.380
3.756,-0.675,-0.380
3.758,-0.670,-0.385
3.761,-0.685,-0.390
3.764,-0.680,-0.395
3.767,-0.680,-0.390
3.769,-0.660,-0.395
3.772,-0.670,-0.385
3.775,-0.655,-0.375
3.778,-0.650,-0.370
3.781,-0.645,-0.355
3.783,-0.650,-0.375
3.786,-0.640,-0.375
3.789,-0.640,-0.380
3.792,-0.655,-0.385
3.794,-0.655,-0.390
3.797,-0.640,-0.390
3.800,-0.640,-0.375
3.803,-0.630,-0.370
3.806,-0.620,-0.355
3.808,-0.620,-0.350
3.811,-0.590,-0.355
3.814,-0.590,-0.360
3.817,-0.595,-0.375
3.819,-0.605,-0.380
3.822,-0.600,-0.385
3.825,-0.600,-0.395
3.828,-0.605,-0.395
3.831,-0.605,-0.380
3.833,-0.595,-0.375
3.836,-0.600,-0.365
3.839,-0.600,-0.355
3.842,-0.590,-0.365
3.844,-0.590,-0.355
3.847,-0.575,-0.365
3.850,-0.570,-0.380
3.853,-0.570,-0.375
3.856,-0.585,-0.375
3.858,-0.585,-0.385
3.861,-0.585,-0.395
3.864,-0.595,-0.385
3.867,-0.595,-0.380
3.869,-0.595,-0.375
3.872,-0.590,-0.380
3.875,-0.590,-0.370
3.878,-0.580,-0.370
3.881,-0.580,-0.360
3.883,-0.585,-0.365
3.886,-0.585,-0.375
3.889,-0.595,-0.380
3.892,-0.605,-0.400
3.894,-0.625,-0.395
3.897,-0.625,-0.405
3.900,-0.635,-0.395
3.903,-0.630,-0.385
3.906,-0.630,-0.370
3.908,-0.630,-0.365
3.911,-0.625,-0.360
3.914,-0.620,-0.370
3.917,-0.620,-0.380
3.919,-0.620,-0.380
3.922,-0.635,-0.395
3.925,-0.645,-0.395
3.928,-0.660,-0.380
3.931,-0.665,-0.390
3.933,-0.665,-0.380
3.936,-0.680,-0.385
3.939,-0.670,-0.365
3.942,-0.655,-0.365
3.944,-0.660,-0.365
3.947,-0.650,-0.360
3.950,-0.665,-0.370
3.953,-0.660,-0.365
3.956,-0.665,-0.375
3.958,-0.675,-0.385
3.961,-0.685,-0.400
3.964,-0.680,-0.400
3.967,-0.690,-0.390
3.969,-0.685,-0.385
3.972,-0.685,-0.375
3.975,-0.680,-0.355
3.978,-0.675,-0.350
3.981,-0.660,-0.360
3.983,-0.655,-0.375
3.986,-0.660,-0.380
3.989,-0.675,-0.380
3.992,-0.675,-0.385
3.994,-0.690,-0.395
3.997,-0.685,-0.390
4.000,-0.700,-0.385
4.003,-0.700,-0.375
4.006,-0.695,-0.375
4.008,-0.680,-0.365
4.011,-0.680,-0.360
4.014,-0.680,-0.355
4.017,-0.685,-0.365
4.019,-0.680,-0.375
4.022,-0.680,-0.380
4.025,-0.690,-0.385
4.028,-0.690,-0.375
4.031,-0.700,-0.410
4.033,-0.700,-0.400
4.036,-0.695,-0.385
4.039,-0.695,-0.370
4.042,-0.695,-0.360
4.044,-0.700,-0.345
4.047,-0.670,-0.335
4.050,-0.685,-0.365
4.053,-0.680,-0.375
4.056,-0.680,-0.370
4.058,-0.685,-0.400
4.061,-0.690,-0.385
4.064,-0.695,-0.385
4.067,-0.705,-0.380
4.069,-0.685,-0.375
4.072,-0.675,-0.365
4.075,-0.670,-0.360
4.078,-0.665,-0.360
4.081,-0.650,-0.360
4.083,-0.650,-0.370
4.086,-0.635,-0.360
4.089,-0.640,-0.370
4.092,-0.635,-0.380
4.094,-0.635,-0.385
4.097,-0.625,-0.375
4.100,-0.620,-0.370
4.103,-0.590,-0.355
4.106,-0.580,-0.335
4.108,-0.555,-0.310
4.111,-0.550,-0.290
4.114,-0.525,-0.300
4.117,-0.530,-0.315
4.119,-0.530,-0.355
4.122,-0.535,-0.385
4.125,-0.560,-0.410
4.128,-0.575,-0.435
4.131,-0.595,-0.430
4.133,-0.595,-0.420
4.136,-0.605,-0.410
4.139,-0.590,-0.395
4.142,-0.595,-0.380
4.144,-0.585,-0.375
4.147,-0.595,-0.375
4.150,-0.615,-0.380
4.153,-0.625,-0.375
4.156,-0.660,-0.380
4.158,-0.665,-0.375
4.161,-0.690,-0.390
4.164,-0.685,-0.395
4.167,-0.690,-0.390
4.169,-0.670,-0.395
4.172,-0.665,-0.390
4.175,-0.655,-0.370
4.178,-0.635,-0.370
4.181,-0.620,-0.360
4.183,-0.620,-0.360
4.186,-0.605,-0.370
4.189,-0.580,-0.370
4.192,-0.555,-0.380
4.194,-0.520,-0.380
4.197,-0.450,-0.365
4.200,-0.320,-0.330
4.203,-0.140,-0.280
4.206,0.105,-0.225
4.208,0.415,-0.200
4.211,0.730,-0.180
4.214,1.010,-0.205
4.217,1.195,-0.285
4.219,1.250,-0.395
4.222,1.145,-0.550
4.225,0.855,-0.710
4.228,0.400,-0.880
4.231,-0.150,-1.035
4.233,-0.700,-1.125
4.236,-1.105,-1.145
4.239,-1.290,-1.105
4.242,-1.270,-1.005
4.244,-1.115,-0.900
4.247,-0.945,-0.800
4.250,-0.845,-0.715
4.253,-0.775,-0.635
4.256,-0.770,-0.585
4.258,-0.805,-0.555
4.261,-0.820,-0.525
4.264,-0.835,-0.500
4.267,-0.815,-0.480
4.269,-0.800,-0.445
4.272,-0.765,-0.415
4.275,-0.755,-0.395
4.278,-0.750,-0.360
4.281,-0.745,-0.355
4.283,-0.760,-0.345
4.286,-0.780,-0.345
4.289,-0.800,-0.355
4.292,-0.810,-0.350
4.294,-0.820,-0.360
4.297,-0.820,-0.365
4.300,-0.815,-0.340
4.303,-0.815,-0.330
4.306,-0.795,-0.320
4.308,-0.790,-0.320
4.311,-0.785,-0.325
4.314,-0.770,-0.310
4.317,-0.775,-0.320
4.319,-0.760,-0.310
4.322,-0.775,-0.320
4.325,-0.770,-0.320
4.328,-0.770,-0.325
4.331,-0.765,-0.330
4.333,-0.760,-0.330
4.336,-0.760,-0.315
4.339,-0.755,-0.325
4.342,-0.745,-0.310
4.344,-0.745,-0.305
4.347,-0.730,-0.290
4.350,-0.715,-0.295
4.353,-0.705,-0.290
4.356,-0.715,-0.305
4.358,-0.710,-0.320
4.361,-0.710,-0.325
4.364,-0.710,-0.325
4.367,-0.700,-0.315
4.369,-0.690,-0.310
4.372,-0.690,-0.300
4.375,-0.675,-0.285
4.378,-0.670,-0.285
4.381,-0.655,-0.290
4.383,-0.640,-0.295
4.386,-0.645,-0.300
4.389,-0.645,-0.295
4.392,-0.640,-0.295
4.394,-0.650,-0.300
4.397,-0.645,-0.295
4.400,-0.635,-0.295
4.403,-0.635,-0.295
4.406,-0.610,-0.300
4.408,-0.600,-0.300
4.411,-0.600,-0.285
4.414,-0.580,-0.280
4.417,-0.585,-0.290
4.419,-0.580,-0.275
4.422,-0.580,-0.285
4.425,-0.575,-0.295
4.428,-0.580,-0.305
4.431,-0.585,-0.300
4.433,-0.565,-0.300
4.436,-0.565,-0.295
4.439,-0.555,-0.285
4.442,-0.540,-0.270
4.444,-0.530,-0.260
4.447,-0.505,-0.260
4.450,-0.515,-0.270
4.453,-0.505,-0.275
4.456,-0.495,-0.280
4.458,-0.505,-0.285
4.461,-0.515,-0.295
4.464,-0.510,-0.290
4.467,-0.505,-0.275
4.469,-0.510,-0.260
4.472,-0.490,-0.265
4.475,-0.485,-0.250
4.478,-0.465,-0.265
4.481,-0.455,-0.260
4.483,-0.450,-0.275
4.486,-0.460,-0.280
4.489,-0.455,-0.290
4.492,-0.455,-0.290
4.494,-0.455,-0.290
4.497,-0.455,-0.285
4.500,-0.440,-0.285
4.503,-0.420,-0.290
4.506,-0.395,-0.290
4.508,-0.380,-0.295
4.511,-0.350,-0.285
4.514,-0.335,-0.290
4.517,-0.330,-0.305
4.519,-0.330,-0.315
4.522,-0.335,-0.325
4.525,-0.350,-0.345
4.528,-0.380,-0.355
4.531,-0.390,-0.360
4.533,-0.400,-0.360
4.536,-0.415,-0.355
4.539,-0.445,-0.355
4.542,-0.440,-0.350
4.544,-0.445,-0.350
4.547,-0.465,-0.350
4.550,-0.475,-0.370
4.553,-0.490,-0.385
4.556,-0.505,-0.380
4.558,-0.530,-0.380
4.561,-0.545,-0.380
4.564,-0.560,-0.380
4.567,-0.575,-0.360
4.569,-0.585,-0.355
4.572,-0.595,-0.365
4.575,-0.605,-0.355
4.578,-0.605,-0.355
4.581,-0.605,-0.350
4.583,-0.615,-0.360
4.586,-0.610,-0.355
4.589,-0.625,-0.370
4.592,-0.635,-0.375
4.594,-0.655,-0.370
4.597,-0.655,-0.380
4.600,-0.655,-0.375
4.603,-0.650,-0.365
4.606,-0.650,-0.360
4.608,-0.650,-0.355
4.611,-0.640,-0.350
4.614,-0.635,-0.355
4.617,-0.625,-0.350
4.619,-0.630,-0.365
4.622,-0.635,-0.380
4.625,-0.645,-0.385
4.628,-0.640,-0.385
4.631,-0.635,-0.380
4.633,-0.635,-0.360
4.636,-0.630,-0.355
4.639,-0.620,-0.345
4.642,-0.610,-0.345
4.644,-0.590,-0.350
4.647,-0.590,-0.340
4.650,-0.585,-0.360
4.653,-0.580,-0.360
4.656,-0.590,-0.375
4.658,-0.595,-0.360
4.661,-0.595,-0.370
4.664,-0.590,-0.380
4.667,-0.590,-0.375
4.669,-0.590,-0.360
4.672,-0.575,-0.365
4.675,-0.565,-0.355
4.678,-0.565,-0.345
4.681,-0.555,-0.340
4.683,-0.570,-0.350
4.686,-0.565,-0.355
4.689,-0.575,-0.380
4.692,-0.585,-0.380
4.694,-0.585,-0.380
4.697,-0.590,-0.390
4.700,-0.590,-0.370
4.703,-0.590,-0.365
4.706,-0.580,-0.360
4.708,-0.575,-0.350
4.711,-0.580,-0.350
4.714,-0.565,-0.350
4.717,-0.570,-0.370
4.719,-0.575,-0.370
4.722,-0.580,-0.375
4.725,-0.590,-0.375
4.728,-0.595,-0.390
4.731,-0.605,-0.380
4.733,-0.605,-0.375
4.736,-0.615,-0.370
4.739,-0.615,-0.370
4.742,-0.620,-0.360
4.744,-0.620,-0.355
4.747,-0.615,-0.360
4.750,-0.615,-0.360
4.753,-0.615,-0.370
4.756,-0.620,-0.380
4.758,-0.620,-0.390
4.761,-0.640,-0.400
4.764,-0.655,-0.395
4.767,-0.665,-0.385
4.769,-0.670,-0.375
4.772,-0.670,-0.365
4.775,-0.670,-0.365
4.778,-0.670,-0.360
4.781,-0.650,-0.365
4.783,-0.645,-0.375
4.786,-0.655,-0.380
4.789,-0.660,-0.380
4.792,-0.660,-0.380
4.794,-0.665,-0.385
4.797,-0.675,-0.380
4.800,-0.690,-0.380
4.803,-0.680,-0.380
4.806,-0.675,-0.365
4.808,-0.680,-0.370
4.811,-0.665,-0.355
4.814,-0.670,-0.360
4.817,-0.670,-0.355
4.819,-0.665,-0.365
4.822,-0.660,-0.380
4.825,-0.700,-0.385
4.828,-0.700,-0.390
4.831,-0.685,-0.390
4.833,-0.700,-0.380
4.836,-0.690,-0.375
4.839,-0.690,-0.370
4.842,-0.690,-0.355
4.844,-0.690,-0.360
4.847,-0.675,-0.360
4.850,-0.665,-0.370
4.853,-0.675,-0.385
4.856,-0.675,-0.385
4.858,-0.685,-0.390
4.861,-0.690,-0.380
4.864,-0.685,-0.390
4.867,-0.685,-0.375
4.869,-0.700,-0.370
4.872,-0.685,-0.380
4.875,-0.680,-0.375
4.878,-0.680,-0.365
4.881,-0.675,-0.360
4.883,-0.680,-0.375
4.886,-0.680,-0.370
4.889,-0.690,-0.380
4.892,-0.685,-0.385
4.894,-0.690,-0.400
4.897,-0.685,-0.405
4.900,-0.680,-0.390
4.903,-0.690,-0.380
4.906,-0.685,-0.370
4.908,-0.675,-0.355
4.911,-0.665,-0.350
4.914,-0.645,-0.350
4.917,-0.635,-0.360
4.919,-0.635,-0.375
4.922,-0.610,-0.375
4.925,-0.605,-0.375
4.928,-0.605,-0.365
4.931,-0.585,-0.350
4.933,-0.575,-0.325
4.936,-0.560,-0.335
4.939,-0.555,-0.315
4.942,-0.535,-0.315
4.944,-0.530,-0.325
4.947,-0.535,-0.335
4.950,-0.545,-0.375
4.953,-0.565,-0.385
4.956,-0.595,-0.410
4.958,-0.595,-0.435
4.961,-0.615,-0.435
4.964,-0.610,-0.430
4.967,-0.610,-0.430
4.969,-0.615,-0.410
4.972,-0.605,-0.400
4.975,-0.610,-0.380
4.978,-0.615,-0.360
4.981,-0.630,-0.370
4.983,-0.645,-0.380
4.986,-0.665,-0.390
4.989,-0.675,-0.405
4.992,-0.695,-0.400
4.994,-0.700,-0.405
4.997,-0.705,-0.405
5.000,-0.705,-0.385
5.003,-0.690,-0.390
5.006,-0.665,-0.380
5.008,-0.670,-0.375
5.011,-0.655,-0.390
5.014,-0.635,-0.385
5.017,-0.620,-0.385
5.019,-0.605,-0.385
5.022,-0.570,-0.380
5.025,-0.515,-0.375
5.028,-0.425,-0.370
5.031,-0.270,-0.350
5.033,-0.035,-0.305
5.036,0.270,-0.265
5.039,0.655,-0.240
5.042,1.030,-0.225
5.044,1.325,-0.265
5.047,1.485,-0.335
5.050,1.470,-0.455
5.053,1.275,-0.590
5.056,0.885,-0.740
5.058,0.305,-0.885
5.061,-0.335,-0.995
5.064,-0.975,-1.065
5.067,-1.415,-1.080
5.069,-1.575,-1.025
5.072,-1.475,-0.950
5.075,-1.260,-0.845
5.078,-1.025,-0.770
5.081,-0.875,-0.705
5.083,-0.800,-0.645
5.086,-0.810,-0.590
5.089,-0.855,-0.545
5.092,-0.900,-0.510
5.094,-0.900,-0.480
5.097,-0.880,-0.470
5.100,-0.835,-0.430
5.103,-0.800,-0.420
5.106,-0.780,-0.390
5.108,-0.775,-0.380
5.111,-0.775,-0.370
5.114,-0.785,-0.365
5.117,-0.800,-0.365
5.119,-0.810,-0.360
5.122,-0.815,-0.365
5.125,-0.825,-0.350
5.128,-0.815,-0.360
5.131,-0.830,-0.370
5.133,-0.825,-0.360
5.136,-0.820,-0.345
5.139,-0.805,-0.335
5.142,-0.800,-0.335
5.144,-0.795,-0.310
5.147,-0.780,-0.305
5.150,-0.770,-0.320
5.153,-0.765,-0.330
5.156,-0.755,-0.335
5.158,-0.765,-0.350
5.161,-0.775,-0.355
5.164,-0.760,-0.355
5.167,-0.770,-0.340
5.169,-0.760,-0.330
5.172,-0.755,-0.330
5.175,-0.745,-0.315
5.178,-0.730,-0.310
5.181,-0.720,-0.315
5.183,-0.715,-0.325
5.186,-0.710,-0.325
5.189,-0.710,-0.325
5.192,-0.710,-0.315
5.194,-0.700,-0.325
5.197,-0.705,-0.330
5.200,-0.695,-0.325
5.203,-0.690,-0.330
5.206,-0.680,-0.320
5.208,-0.675,-0.305
5.211,-0.670,-0.305
5.214,-0.665,-0.285
5.217,-0.665,-0.295
5.219,-0.660,-0.305
5.222,-0.660,-0.315
5.225,-0.670,-0.325
5.228,-0.655,-0.345
5.231,-0.660,-0.345
5.233,-0.650,-0.335
5.236,-0.640,-0.315
5.239,-0.635,-0.300
5.242,-0.625,-0.300
5.244,-0.620,-0.280
5.247,-0.595,-0.290
5.250,-0.595,-0.305
5.253,-0.600,-0.300
5.256,-0.600,-0.310
5.258,-0.600,-0.310
5.261,-0.605,-0.310
5.264,-0.595,-0.315
5.267,-0.595,-0.295
5.269,-0.585,-0.285
5.272,-0.575,-0.300
5.275,-0.555,-0.290
5.278,-0.550,-0.275
5.281,-0.535,-0.280
5.283,-0.530,-0.290
5.286,-0.530,-0.280
5.289,-0.535,-0.280
5.292,-0.540,-0.290
5.294,-0.550,-0.285
5.297,-0.570,-0.280
5.300,-0.570,-0.285
5.303,-0.560,-0.295
5.306,-0.565,-0.285
5.308,-0.540,-0.290
5.311,-0.525,-0.270
5.314,-0.515,-0.275
5.317,-0.510,-0.280
5.319,-0.505,-0.280
5.322,-0.490,-0.300
5.325,-0.485,-0.290
5.328,-0.495,-0.310
5.331,-0.495,-0.305
5.333,-0.475,-0.305
5.336,-0.465,-0.310
5.339,-0.455,-0.300
5.342,-0.425,-0.300
5.344,-0.405,-0.305
5.347,-0.390,-0.325
5.350,-0.380,-0.330
5.353,-0.385,-0.340
5.356,-0.390,-0.350
5.358,-0.415,-0.350
5.361,-0.435,-0.360
5.364,-0.455,-0.360
5.367,-0.465,-0.365
5.369,-0.485,-0.365
5.372,-0.500,-0.365
5.375,-0.510,-0.365
5.378,-0.525,-0.360
5.381,-0.535,-0.350
5.383,-0.545,-0.360
5.386,-0.555,-0.370
5.389,-0.570,-0.375
5.392,-0.580,-0.390
5.394,-0.605,-0.390
5.397,-0.600,-0.390
5.400,-0.625,-0.380
5.403,-0.625,-0.380
5.406,-0.635,-0.370
5.408,-0.645,-0.360
5.411,-0.660,-0.355
5.414,-0.660,-0.345
5.417,-0.660,-0.365
5.419,-0.670,-0.365
5.422,-0.675,-0.385
5.425,-0.670,-0.390
5.428,-0.675,-0.385
5.431,-0.700,-0.380
5.433,-0.695,-0.375
5.436,-0.680,-0.365
5.439,-0.660,-0.370
5.442,-0.665,-0.360
5.444,-0.650,-0.355
5.447,-0.640,-0.365
5.450,-0.645,-0.370
5.453,-0.650,-0.360
5.456,-0.650,-0.370
5.458,-0.675,-0.370
5.461,-0.680,-0.370
5.464,-0.675,-0.380
5.467,-0.670,-0.370
5.469,-0.660,-0.375
5.472,-0.655,-0.360
5.475,-0.625,-0.370
5.478,-0.615,-0.345
5.481,-0.615,-0.340
5.483,-0.605,-0.345
5.486,-0.600,-0.355
5.489,-0.590,-0.360
5.492,-0.600,-0.375
5.494,-0.615,-0.375
5.497,-0.605,-0.380
5.500,-0.615,-0.365
5.503,-0.620,-0.365
5.506,-0.610,-0.360
5.508,-0.605,-0.350
5.511,-0.595,-0.340
5.514,-0.590,-0.345
5.517,-0.580,-0.360
5.519,-0.560,-0.365
5.522,-0.555,-0.365
5.525,-0.575,-0.390
5.528,-0.580,-0.375
5.531,-0.590,-0.365
5.533,-0.580,-0.365
5.536,-0.575,-0.365
5.539,-0.590,-0.355
5.542,-0.585,-0.355
5.544,-0.565,-0.370
5.547,-0.585,-0.355
5.550,-0.590,-0.365
5.553,-0.590,-0.360
5.556,-0.590,-0.380
5.558,-0.595,-0.380
5.561,-0.610,-0.385
5.564,-0.610,-0.390
5.567,-0.615,-0.385
5.569,-0.625,-0.380
5.572,-0.625,-0.375
5.575,-0.625,-0.355
5.578,-0.630,-0.350
5.581,-0.625,-0.360
5.583,-0.615,-0.370
5.586,-0.620,-0.365
5.589,-0.625,-0.385
5.592,-0.635,-0.390
5.594,-0.650,-0.390
5.597,-0.640,-0.390
5.600,-0.645,-0.380
5.603,-0.650,-0.375
5.606,-0.650,-0.370
5.608,-0.645,-0.365
5.611,-0.655,-0.365
5.614,-0.660,-0.360
5.617,-0.655,-0.370
5.619,-0.670,-0.355
5.622,-0.665,-0.370
5.625,-0.695,-0.370
5.628,-0.685,-0.390
5.631,-0.680,-0.390
5.633,-0.680,-0.375
5.636,-0.680,-0.380
5.639,-0.680,-0.370
5.642,-0.675,-0.355
5.644,-0.670,-0.345
5.647,-0.670,-0.350
5.650,-0.680,-0.360
5.653,-0.670,-0.365
5.656,-0.690,-0.375
5.658,-0.700,-0.385
5.661,-0.695,-0.385
5.664,-0.710,-0.390
5.667,-0.710,-0.375
5.669,-0.720,-0.365
5.672,-0.705,-0.365
5.675,-0.685,-0.350
5.678,-0.690,-0.350
5.681,-0.665,-0.355
5.683,-0.665,-0.360
5.686,-0.670,-0.365
5.689,-0.680,-0.365
5.692,-0.690,-0.375
5.694,-0.695,-0.385
5.697,-0.705,-0.385
5.700,-0.715,-0.370
5.703,-0.705,-0.375
5.706,-0.700,-0.365
5.708,-0.700,-0.360
5.711,-0.685,-0.355
5.714,-0.685,-0.355
5.717,-0.685,-0.360
5.719,-0.695,-0.365
5.722,-0.685,-0.365
5.725,-0.690,-0.375
5.728,-0.700,-0.390
5.731,-0.695,-0.390
5.733,-0.705,-0.390
5.736,-0.710,-0.380
5.739,-0.705,-0.355
5.742,-0.690,-0.360
5.744,-0.675,-0.355
5.747,-0.645,-0.350
5.750,-0.645,-0.370
5.753,-0.635,-0.365
5.756,-0.625,-0.370
5.758,-0.610,-0.360
5.761,-0.615,-0.365
5.764,-0.595,-0.360
5.767,-0.590,-0.355
5.769,-0.575,-0.335
5.772,-0.555,-0.335
5.775,-0.545,-0.315
5.778,-0.540,-0.310
5.781,-0.530,-0.310
5.783,-0.525,-0.335
5.786,-0.530,-0.345
5.789,-0.560,-0.375
5.792,-0.565,-0.395
5.794,-0.580,-0.420
5.797,-0.590,-0.435
5.800,-0.590,-0.415
5.803,-0.595,-0.410
5.806,-0.585,-0.390
5.808,-0.580,-0.375
5.811,-0.590,-0.365
5.814,-0.600,-0.365
5.817,-0.605,-0.375
5.819,-0.625,-0.370
5.822,-0.650,-0.385
5.825,-0.675,-0.400
5.828,-0.690,-0.405
5.831,-0.705,-0.400
5.833,-0.705,-0.395
5.836,-0.705,-0.385
5.839,-0.675,-0.380
5.842,-0.680,-0.380
5.844,-0.670,-0.375
5.847,-0.655,-0.370
5.850,-0.655,-0.385
5.853,-0.650,-0.375
5.856,-0.650,-0.385
5.858,-0.640,-0.380
5.861,-0.635,-0.390
5.864,-0.605,-0.395
5.867,-0.560,-0.375
5.869,-0.465,-0.360
5.872,-0.345,-0.330
5.875,-0.175,-0.300
5.878,0.075,-0.245
5.881,0.370,-0.205
5.883,0.730,-0.200
5.886,1.090,-0.200
5.889,1.380,-0.260
5.892,1.540,-0.335
5.894,1.560,-0.440
5.897,1.430,-0.560
5.900,1.100,-0.695
5.903,0.550,-0.820
5.906,-0.090,-0.930
5.908,-0.730,-1.020
5.911,-1.370,-1.040
5.914,-1.725,-0.995
5.917,-1.645,-0.925
5.919,-1.385,-0.830
5.922,-1.115,-0.740
5.925,-0.915,-0.660
5.928,-0.840,-0.605
5.931,-0.805,-0.550
5.933,-0.835,-0.495
5.936,-0.855,-0.475
5.939,-0.855,-0.435
5.942,-0.820,-0.420
5.944,-0.785,-0.385
5.947,-0.750,-0.370
5.950,-0.755,-0.365
5.953,-0.760,-0.350
5.956,-0.780,-0.355
5.958,-0.815,-0.365
5.961,-0.820,-0.365
5.964,-0.840,-0.365
5.967,-0.835,-0.360
5.969,-0.825,-0.360
5.972,-0.815,-0.345
5.975,-0.790,-0.330
5.978,-0.775,-0.320
5.981,-0.760,-0.315
5.983,-0.750,-0.315
5.986,-0.750,-0.310
5.989,-0.750,-0.335
5.992,-0.760,-0.330
5.994,-0.790,-0.340
5.997,-0.780,-0.335
6.000,-0.775,-0.335
6.003,-0.775,-0.325
6.006,-0.765,-0.325
6.008,-0.750,-0.315
6.011,-0.740,-0.310
6.014,-0.730,-0.310
6.017,-0.710,-0.320
6.019,-0.700,-0.330
6.022,-0.705,-0.315
6.025,-0.705,-0.325
6.028,-0.710,-0.320
6.031,-0.710,-0.315
6.033,-0.720,-0.310
6.036,-0.710,-0.310
6.039,-0.700,-0.315
6.042,-0.690,-0.315
6.044,-0.680,-0.305
6.047,-0.665,-0.295
6.050,-0.670,-0.305
6.053,-0.675,-0.295
6.056,-0.660,-0.310
6.058,-0.650,-0.305
6.061,-0.650,-0.320
6.064,-0.650,-0.320
6.067,-0.630,-0.315
6.069,-0.635,-0.315
6.072,-0.620,-0.300
6.075,-0.620,-0.290
6.078,-0.615,-0.275
6.081,-0.610,-0.270
6.083,-0.595,-0.275
6.086,-0.590,-0.290
6.089,-0.600,-0.300
6.092,-0.585,-0.310
6.094,-0.595,-0.315
6.097,-0.590,-0.315
6.100,-0.600,-0.295
6.103,-0.585,-0.280
6.106,-0.570,-0.280
6.108,-0.550,-0.280
6.111,-0.545,-0.270
6.114,-0.535,-0.270
6.117,-0.530,-0.295
6.119,-0.545,-0.295
6.122,-0.540,-0.290
6.125,-0.555,-0.295
6.128,-0.560,-0.285
6.131,-0.570,-0.280
6.133,-0.570,-0.285
6.136,-0.565,-0.285
6.139,-0.545,-0.280
6.142,-0.535,-0.270
6.144,-0.535,-0.275
6.147,-0.515,-0.255
6.150,-0.525,-0.265
6.153,-0.525,-0.265
6.156,-0.515,-0.270
6.158,-0.520,-0.285
6.161,-0.520,-0.295
6.164,-0.510,-0.300
6.167,-0.530,-0.295
6.169,-0.525,-0.290
6.172,-0.500,-0.270
6.175,-0.490,-0.280
6.178,-0.465,-0.265
6.181,-0.440,-0.265
6.183,-0.420,-0.295
6.186,-0.410,-0.305
6.189,-0.405,-0.325
6.192,-0.390,-0.345
6.194,-0.385,-0.345
6.197,-0.395,-0.350
6.200,-0.405,-0.350
6.203,-0.410,-0.320
6.206,-0.415,-0.335
6.208,-0.420,-0.335
6.211,-0.440,-0.340
6.214,-0.445,-0.335
6.217,-0.455,-0.360
6.219,-0.475,-0.350
6.222,-0.490,-0.370
6.225,-0.525,-0.365
6.228,-0.550,-0.370
6.231,-0.570,-0.385
6.233,-0.575,-0.380
6.236,-0.585,-0.385
6.239,-0.575,-0.370
6.242,-0.590,-0.365
6.244,-0.600,-0.340
6.247,-0.610,-0.340
6.250,-0.615,-0.340
6.253,-0.630,-0.355
6.256,-0.635,-0.355
6.258,-0.640,-0.375
6.261,-0.650,-0.385
6.264,-0.665,-0.390
6.267,-0.665,-0.360
6.269,-0.675,-0.365
6.272,-0.665,-0.345
6.275,-0.660,-0.345
6.278,-0.660,-0.335
6.281,-0.640,-0.340
6.283,-0.630,-0.355
6.286,-0.630,-0.360
6.289,-0.635,-0.370
6.292,-0.660,-0.365
6.294,-0.660,-0.365
6.297,-0.675,-0.365
6.300,-0.670,-0.355
6.303,-0.665,-0.375
6.306,-0.675,-0.355
6.308,-0.645,-0.370
6.311,-0.645,-0.355
6.314,-0.625,-0.345
6.317,-0.615,-0.345
6.319,-0.610,-0.340
6.322,-0.610,-0.355
6.325,-0.610,-0.360
6.328,-0.600,-0.370
6.331,-0.600,-0.380
6.333,-0.600,-0.370
6.336,-0.600,-0.380
6.339,-0.590,-0.360
6.342,-0.580,-0.340
6.344,-0.590,-0.340
6.347,-0.565,-0.320
6.350,-0.570,-0.335
6.353,-0.560,-0.350
6.356,-0.560,-0.360
6.358,-0.570,-0.365
6.361,-0.575,-0.375
6.364,-0.570,-0.375
6.367,-0.580,-0.360
6.369,-0.570,-0.360
6.372,-0.560,-0.360
6.375,-0.545,-0.350
6.378,-0.550,-0.350
6.381,-0.535,-0.335
6.383,-0.535,-0.350
6.386,-0.545,-0.335
6.389,-0.555,-0.350
6.392,-0.570,-0.345
6.394,-0.570,-0.370
6.397,-0.575,-0.380
6.400,-0.585,-0.375
6.403,-0.585,-0.375
6.406,-0.580,-0.365
6.408,-0.580,-0.355
6.411,-0.580,-0.340
6.414,-0.570,-0.325
6.417,-0.565,-0.340
6.419,-0.575,-0.340
6.422,-0.580,-0.355
6.425,-0.590,-0.370
6.428,-0.605,-0.380
6.431,-0.615,-0.380
6.433,-0.635,-0.360
6.436,-0.640,-0.360
6.439,-0.640,-0.350
6.442,-0.630,-0.355
6.444,-0.615,-0.350
6.447,-0.615,-0.350
6.450,-0.630,-0.355
6.453,-0.645,-0.345
6.456,-0.655,-0.355
6.458,-0.660,-0.355
6.461,-0.645,-0.365
6.464,-0.655,-0.370
6.467,-0.655,-0.370
6.469,-0.650,-0.370
6.472,-0.650,-0.370
6.475,-0.645,-0.370
6.478,-0.645,-0.335
6.481,-0.640,-0.325
6.483,-0.630,-0.340
6.486,-0.640,-0.340
6.489,-0.645,-0.350
6.492,-0.655,-0.360
6.494,-0.660,-0.380
6.497,-0.670,-0.385
6.500,-0.675,-0.365
6.503,-0.690,-0.355
6.506,-0.685,-0.350
6.508,-0.670,-0.335
6.511,-0.650,-0.335
6.514,-0.645,-0.340
6.517,-0.640,-0.350
6.519,-0.650,-0.345
6.522,-0.655,-0.360
6.525,-0.660,-0.370
6.528,-0.670,-0.375
6.531,-0.675,-0.360
6.533,-0.675,-0.360
6.536,-0.675,-0.365
6.539,-0.660,-0.365
6.542,-0.665,-0.345
6.544,-0.660,-0.355
6.547,-0.660,-0.345
6.550,-0.670,-0.350
6.553,-0.665,-0.340
6.556,-0.670,-0.355
6.558,-0.685,-0.355
6.561,-0.685,-0.365
6.564,-0.690,-0.380
6.567,-0.695,-0.375
6.569,-0.685,-0.365
6.572,-0.675,-0.350
6.575,-0.680,-0.350
6.578,-0.665,-0.335
6.581,-0.650,-0.325
6.583,-0.650,-0.345
6.586,-0.650,-0.340
6.589,-0.665,-0.360
6.592,-0.700,-0.360
6.594,-0.685,-0.355
6.597,-0.665,-0.370
6.600,-0.655,-0.355
6.603,-0.645,-0.355
6.606,-0.615,-0.345
6.608,-0.590,-0.350
6.611,-0.595,-0.330
6.614,-0.575,-0.320
6.617,-0.550,-0.300
6.619,-0.535,-0.305
6.622,-0.525,-0.300
6.625,-0.515,-0.305
6.628,-0.505,-0.320
6.631,-0.510,-0.340
6.633,-0.525,-0.350
6.636,-0.550,-0.370
6.639,-0.555,-0.370
6.642,-0.565,-0.375
6.644,-0.570,-0.365
6.647,-0.555,-0.360
6.650,-0.555,-0.370
6.653,-0.560,-0.375
6.656,-0.570,-0.375
6.658,-0.580,-0.375
6.661,-0.605,-0.390
6.664,-0.625,-0.380
6.667,-0.635,-0.365
6.669,-0.660,-0.350
6.672,-0.665,-0.355
6.675,-0.665,-0.355
6.678,-0.665,-0.350
6.681,-0.660,-0.350
6.683,-0.660,-0.350
6.686,-0.665,-0.345
6.689,-0.680,-0.360
6.692,-0.680,-0.355
6.694,-0.665,-0.370
6.697,-0.670,-0.385
6.700,-0.665,-0.375
6.703,-0.650,-0.375
6.706,-0.615,-0.370
6.708,-0.595,-0.355
6.711,-0.535,-0.325
6.714,-0.465,-0.305
6.717,-0.355,-0.300
6.719,-0.185,-0.275
6.722,0.040,-0.240
6.725,0.350,-0.215
6.728,0.720,-0.200
6.731,1.085,-0.200
6.733,1.365,-0.235
6.736,1.525,-0.305
6.739,1.535,-0.405
6.742,1.325,-0.545
6.744,0.845,-0.705
6.747,0.205,-0.860
6.750,-0.435,-0.995
6.753,-1.075,-1.065
6.756,-1.635,-1.030
6.758,-1.615,-0.935
6.761,-1.385,-0.820
6.764,-1.110,-0.695
6.767,-0.905,-0.600
6.769,-0.800,-0.530
6.772,-0.765,-0.485
6.775,-0.770,-0.445
6.778,-0.765,-0.420
6.781,-0.770,-0.385
6.783,-0.770,-0.380
6.786,-0.775,-0.345
6.789,-0.770,-0.350
6.792,-0.770,-0.360
6.794,-0.790,-0.375
6.797,-0.805,-0.370
6.800,-0.805,-0.365
6.803,-0.815,-0.335
6.806,-0.805,-0.330
6.808,-0.785,-0.310
6.811,-0.785,-0.315
6.814,-0.775,-0.300
6.817,-0.760,-0.305
6.819,-0.755,-0.310
6.822,-0.765,-0.330
6.825,-0.775,-0.320
6.828,-0.785,-0.320
6.831,-0.785,-0.325
6.833,-0.780,-0.310
6.836,-0.780,-0.305
6.839,-0.765,-0.305
6.842,-0.745,-0.305
6.844,-0.740,-0.300
6.847,-0.725,-0.295
6.850,-0.725,-0.290
6.853,-0.725,-0.290
6.856,-0.715,-0.295
6.858,-0.725,-0.290
6.861,-0.725,-0.295
6.864,-0.710,-0.310
6.867,-0.725,-0.300
6.869,-0.720,-0.305
6.872,-0.715,-0.300
6.875,-0.695,-0.285
6.878,-0.690,-0.270
6.881,-0.670,-0.260
6.883,-0.665,-0.275
6.886,-0.650,-0.285
6.889,-0.650,-0.290
6.892,-0.655,-0.300
6.894,-0.650,-0.310
6.897,-0.655,-0.305
6.900,-0.655,-0.290
6.903,-0.645,-0.280
6.906,-0.640,-0.290
6.908,-0.625,-0.270
6.911,-0.615,-0.270
6.914,-0.595,-0.275
6.917,-0.585,-0.275
6.919,-0.590,-0.285
6.922,-0.580,-0.285
6.925,-0.585,-0.290
6.928,-0.590,-0.285
6.931,-0.585,-0.280
6.933,-0.580,-0.270
6.936,-0.580,-0.280
6.939,-0.565,-0.270
6.942,-0.555,-0.280
6.944,-0.540,-0.265
6.947,-0.530,-0.255
6.950,-0.525,-0.255
6.953,-0.525,-0.275
6.956,-0.530,-0.265
6.958,-0.525,-0.270
6.961,-0.530,-0.285
6.964,-0.520,-0.290
6.967,-0.530,-0.280
6.969,-0.520,-0.270
6.972,-0.530,-0.270
6.975,-0.520,-0.260
6.978,-0.495,-0.260
6.981,-0.485,-0.260
6.983,-0.480,-0.265
6.986,-0.485,-0.270
6.989,-0.485,-0.265
6.992,-0.485,-0.270
6.994,-0.480,-0.280
6.997,-0.470,-0.275
7.000,-0.460,-0.280
7.003,-0.450,-0.285
7.006,-0.435,-0.275
7.008,-0.410,-0.285
7.011,-0.395,-0.285
7.014,-0.370,-0.280
7.017,-0.370,-0.285
7.019,-0.355,-0.295
7.022,-0.360,-0.305
7.025,-0.365,-0.325
7.028,-0.370,-0.335
7.031,-0.370,-0.350
7.033,-0.385,-0.350
7.036,-0.405,-0.340
7.039,-0.410,-0.330
7.042,-0.420,-0.325
7.044,-0.425,-0.325
7.047,-0.435,-0.330
7.050,-0.445,-0.355
7.053,-0.470,-0.355
7.056,-0.485,-0.365
7.058,-0.510,-0.365
7.061,-0.525,-0.365
7.064,-0.545,-0.360
7.067,-0.555,-0.360
7.069,-0.570,-0.360
7.072,-0.570,-0.360
7.075,-0.585,-0.365
7.078,-0.575,-0.355
7.081,-0.585,-0.350
7.083,-0.590,-0.355
7.086,-0.595,-0.345
7.089,-0.600,-0.360
7.092,-0.610,-0.365
7.094,-0.615,-0.375
7.097,-0.625,-0.380
7.100,-0.630,-0.385
7.103,-0.630,-0.365
7.106,-0.640,-0.365
7.108,-0.635,-0.345
7.111,-0.635,-0.345
7.114,-0.625,-0.340
7.117,-0.615,-0.345
7.119,-0.620,-0.345
7.122,-0.610,-0.365
7.125,-0.610,-0.370
7.128,-0.620,-0.380
7.131,-0.620,-0.370
7.133,-0.635,-0.380
7.136,-0.640,-0.360
7.139,-0.635,-0.340
7.142,-0.615,-0.330
7.144,-0.605,-0.330
7.147,-0.580,-0.335
7.150,-0.580,-0.350
7.153,-0.570,-0.350
7.156,-0.575,-0.350
7.158,-0.595,-0.355
7.161,-0.580,-0.360
7.164,-0.580,-0.360
7.167,-0.585,-0.360
7.169,-0.580,-0.350
7.172,-0.575,-0.360
7.175,-0.565,-0.350
7.178,-0.565,-0.335
7.181,-0.570,-0.340
7.183,-0.560,-0.335
7.186,-0.560,-0.340
7.189,-0.555,-0.350
7.192,-0.555,-0.370
7.194,-0.555,-0.375
7.197,-0.560,-0.380
7.200,-0.550,-0.365
7.203,-0.545,-0.355
7.206,-0.550,-0.345
7.208,-0.535,-0.350
7.211,-0.545,-0.340
7.214,-0.530,-0.330
7.217,-0.520,-0.360
7.219,-0.525,-0.360
7.222,-0.540,-0.365
7.225,-0.555,-0.375
7.228,-0.560,-0.370
7.231,-0.570,-0.375
7.233,-0.560,-0.370
7.236,-0.575,-0.365
7.239,-0.570,-0.355
7.242,-0.575,-0.360
7.244,-0.565,-0.355
7.247,-0.560,-0.325
7.250,-0.565,-0.345
7.253,-0.565,-0.340
7.256,-0.570,-0.355
7.258,-0.595,-0.365
7.261,-0.605,-0.375
7.264,-0.610,-0.375
7.267,-0.635,-0.375
7.269,-0.620,-0.355
7.272,-0.620,-0.350
7.275,-0.615,-0.340
7.278,-0.600,-0.345
7.281,-0.610,-0.345
7.283,-0.600,-0.360
7.286,-0.610,-0.360
7.289,-0.610,-0.365
7.292,-0.620,-0.375
7.294,-0.630,-0.375
7.297,-0.635,-0.375
7.300,-0.640,-0.365
7.303,-0.640,-0.370
7.306,-0.635,-0.365
7.308,-0.645,-0.365
7.311,-0.635,-0.345
7.314,-0.625,-0.350
7.317,-0.630,-0.350
7.319,-0.635,-0.350
7.322,-0.635,-0.360
7.325,-0.645,-0.370
7.328,-0.640,-0.380
7.331,-0.650,-0.380
7.333,-0.655,-0.380
7.336,-0.655,-0.370
7.339,-0.665,-0.355
7.342,-0.650,-0.345
7.344,-0.645,-0.335
7.347,-0.625,-0.345
7.350,-0.625,-0.360
7.353,-0.635,-0.360
7.356,-0.630,-0.370
7.358,-0.650,-0.370
7.361,-0.660,-0.375
7.364,-0.665,-0.375
7.367,-0.660,-0.370
7.369,-0.660,-0.365
7.372,-0.660,-0.355
7.375,-0.660,-0.360
7.378,-0.660,-0.350
7.381,-0.645,-0.350
7.383,-0.640,-0.355
7.386,-0.650,-0.350
7.389,-0.655,-0.370
7.392,-0.660,-0.365
7.394,-0.655,-0.375
7.397,-0.660,-0.385
7.400,-0.655,-0.385
7.403,-0.660,-0.370
7.406,-0.665,-0.350
7.408,-0.650,-0.340
7.411,-0.645,-0.340
7.414,-0.630,-0.330
7.417,-0.620,-0.360
7.419,-0.625,-0.355
7.422,-0.620,-0.355
7.425,-0.610,-0.375
7.428,-0.615,-0.370
7.431,-0.625,-0.370
7.433,-0.600,-0.360
7.436,-0.585,-0.355
7.439,-0.565,-0.350
7.442,-0.545,-0.340
7.444,-0.530,-0.325
7.447,-0.510,-0.310
7.450,-0.505,-0.300
7.453,-0.495,-0.295
7.456,-0.490,-0.300
7.458,-0.485,-0.320
7.461,-0.490,-0.345
7.464,-0.505,-0.375
7.467,-0.510,-0.385
7.469,-0.535,-0.405
7.472,-0.550,-0.405
7.475,-0.550,-0.395
7.478,-0.545,-0.390
7.481,-0.540,-0.365
7.483,-0.535,-0.375
7.486,-0.530,-0.385
7.489,-0.550,-0.380
7.492,-0.560,-0.390
7.494,-0.580,-0.395
7.497,-0.605,-0.395
7.500,-0.640,-0.370
7.503,-0.655,-0.345
7.506,-0.660,-0.350
7.508,-0.640,-0.350
7.511,-0.655,-0.350
7.514,-0.645,-0.355
7.517,-0.635,-0.370
7.519,-0.625,-0.370
7.522,-0.635,-0.375
7.525,-0.640,-0.370
7.528,-0.640,-0.385
7.531,-0.640,-0.380
7.533,-0.625,-0.370
7.536,-0.610,-0.375
7.539,-0.580,-0.370
7.542,-0.545,-0.365
7.544,-0.495,-0.335
7.547,-0.400,-0.300
7.550,-0.220,-0.280
7.553,0.055,-0.225
7.556,0.455,-0.195
7.558,0.905,-0.185
7.561,1.315,-0.215
7.564,1.565,-0.310
7.567,1.620,-0.470
7.569,1.355,-0.670
7.572,0.745,-0.865
7.575,0.105,-1.055
7.578,-0.535,-1.170
7.581,-1.175,-1.175
7.583,-1.550,-1.110
7.586,-1.405,-0.960
7.589,-1.150,-0.830
7.592,-0.910,-0.710
7.594,-0.760,-0.620
7.597,-0.710,-0.565
7.600,-0.725,-0.510
7.603,-0.755,-0.490
7.606,-0.775,-0.460
7.608,-0.770,-0.425
7.611,-0.760,-0.390
7.614,-0.735,-0.365
7.617,-0.725,-0.350
7.619,-0.720,-0.350
7.622,-0.735,-0.355
7.625,-0.745,-0.360
7.628,-0.760,-0.355
7.631,-0.765,-0.365
7.633,-0.765,-0.350
7.636,-0.770,-0.335
7.639,-0.770,-0.320
7.642,-0.750,-0.305
7.644,-0.745,-0.300
7.647,-0.730,-0.295
7.650,-0.730,-0.305
7.653,-0.715,-0.320
7.656,-0.725,-0.320
7.658,-0.745,-0.315
7.661,-0.745,-0.320
7.664,-0.750,-0.330
7.667,-0.735,-0.310
7.669,-0.735,-0.305
7.672,-0.725,-0.305
7.675,-0.700,-0.295
7.678,-0.700,-0.295
7.681,-0.710,-0.280
7.683,-0.695,-0.275
7.686,-0.690,-0.280
7.689,-0.685,-0.295
7.692,-0.680,-0.295
7.694,-0.675,-0.310
7.697,-0.680,-0.315
7.700,-0.670,-0.310
7.703,-0.670,-0.305
7.706,-0.665,-0.305
7.708,-0.650,-0.290
7.711,-0.635,-0.275
7.714,-0.620,-0.270
7.717,-0.615,-0.270
7.719,-0.610,-0.270
7.722,-0.605,-0.285
7.725,-0.605,-0.300
7.728,-0.605,-0.310
7.731,-0.610,-0.310
7.733,-0.610,-0.295
7.736,-0.605,-0.295
7.739,-0.585,-0.280
7.742,-0.585,-0.275
7.744,-0.565,-0.270
7.747,-0.560,-0.280
7.750,-0.545,-0.280
7.753,-0.540,-0.265
7.756,-0.545,-0.275
7.758,-0.555,-0.285
7.761,-0.545,-0.300
7.764,-0.525,-0.290
7.767,-0.530,-0.290
7.769,-0.520,-0.295
7.772,-0.515,-0.280
7.775,-0.505,-0.265
7.778,-0.495,-0.260
7.781,-0.495,-0.245
7.783,-0.495,-0.260
7.786,-0.485,-0.250
7.789,-0.495,-0.270
7.792,-0.480,-0.280
7.794,-0.485,-0.290
7.797,-0.500,-0.295
7.800,-0.490,-0.280
7.803,-0.485,-0.270
7.806,-0.470,-0.260
7.808,-0.460,-0.255
7.811,-0.455,-0.250
7.814,-0.445,-0.250
7.817,-0.420,-0.255
7.819,-0.430,-0.270
7.822,-0.430,-0.265
7.825,-0.420,-0.280
7.828,-0.420,-0.295
7.831,-0.405,-0.300
7.833,-0.395,-0.305
7.836,-0.370,-0.295
7.839,-0.360,-0.300
7.842,-0.335,-0.305
7.844,-0.320,-0.300
7.847,-0.305,-0.295
7.850,-0.300,-0.305
7.853,-0.295,-0.310
7.856,-0.295,-0.320
7.858,-0.305,-0.340
7.861,-0.320,-0.365
7.864,-0.350,-0.375
7.867,-0.385,-0.365
7.869,-0.370,-0.360
7.872,-0.385,-0.355
7.875,-0.400,-0.350
7.878,-0.405,-0.345
7.881,-0.400,-0.350
7.883,-0.415,-0.355
7.886,-0.425,-0.380
7.889,-0.435,-0.375
7.892,-0.460,-0.380
7.894,-0.505,-0.385
7.897,-0.530,-0.390
7.900,-0.530,-0.375
7.903,-0.540,-0.375
7.906,-0.540,-0.380
7.908,-0.545,-0.370
7.911,-0.545,-0.360
7.914,-0.545,-0.365
7.917,-0.550,-0.370
7.919,-0.555,-0.360
7.922,-0.570,-0.370
7.925,-0.580,-0.360
7.928,-0.595,-0.375
7.931,-0.590,-0.375
7.933,-0.605,-0.385
7.936,-0.600,-0.380
7.939,-0.600,-0.380
7.942,-0.590,-0.380
7.944,-0.595,-0.360
7.947,-0.590,-0.355
7.950,-0.580,-0.350
7.953,-0.590,-0.350
7.956,-0.585,-0.355
7.958,-0.590,-0.375
7.961,-0.600,-0.375
7.964,-0.605,-0.395
7.967,-0.610,-0.385
7.969,-0.600,-0.375
7.972,-0.585,-0.360
7.975,-0.565,-0.360
7.978,-0.565,-0.360
7.981,-0.545,-0.345
7.983,-0.535,-0.360
7.986,-0.535,-0.360
7.989,-0.530,-0.360
7.992,-0.530,-0.365
7.994,-0.550,-0.375
7.997,-0.545,-0.380
8.000,-0.545,-0.365
8.003,-0.535,-0.370
8.006,-0.520,-0.370
8.008,-0.510,-0.365
8.011,-0.505,-0.355
8.014,-0.505,-0.350
8.017,-0.505,-0.355
8.019,-0.500,-0.345
8.022,-0.510,-0.370
8.025,-0.505,-0.365
8.028,-0.520,-0.385
8.031,-0.510,-0.390
8.033,-0.525,-0.385
8.036,-0.520,-0.380
8.039,-0.535,-0.375
8.042,-0.520,-0.370
8.044,-0.520,-0.355
8.047,-0.515,-0.340
8.050,-0.505,-0.360
8.053,-0.505,-0.365
8.056,-0.515,-0.380
8.058,-0.530,-0.390
8.061,-0.535,-0.400
8.064,-0.535,-0.385
8.067,-0.555,-0.380
8.069,-0.555,-0.375
8.072,-0.570,-0.370
8.075,-0.545,-0.375
8.078,-0.535,-0.375
8.081,-0.530,-0.360
8.083,-0.530,-0.370
8.086,-0.545,-0.370
8.089,-0.560,-0.370
8.092,-0.570,-0.380
8.094,-0.570,-0.375
8.097,-0.580,-0.385
8.100,-0.595,-0.390
8.103,-0.590,-0.385
8.106,-0.595,-0.380
8.108,-0.585,-0.375
8.111,-0.585,-0.370
8.114,-0.575,-0.355
8.117,-0.580,-0.355
8.119,-0.580,-0.360
8.122,-0.575,-0.385
8.125,-0.585,-0.385
8.128,-0.590,-0.385
8.131,-0.600,-0.400
8.133,-0.605,-0.390
8.136,-0.605,-0.380
8.139,-0.615,-0.375
8.142,-0.615,-0.365
8.144,-0.610,-0.365
8.147,-0.610,-0.360
8.150,-0.600,-0.365
8.153,-0.605,-0.365
8.156,-0.620,-0.395
8.158,-0.630,-0.390
8.161,-0.640,-0.390
8.164,-0.660,-0.380
8.167,-0.655,-0.385
8.169,-0.645,-0.375
8.172,-0.640,-0.370
8.175,-0.625,-0.370
8.178,-0.635,-0.365
8.181,-0.635,-0.375
8.183,-0.625,-0.375
8.186,-0.630,-0.365
8.189,-0.635,-0.375
8.192,-0.650,-0.375
8.194,-0.645,-0.395
8.197,-0.630,-0.390
8.200,-0.650,-0.385
8.203,-0.650,-0.385
8.206,-0.645,-0.380
8.208,-0.645,-0.375
8.211,-0.645,-0.370
8.214,-0.635,-0.360
8.217,-0.625,-0.370
8.219,-0.620,-0.370
8.222,-0.625,-0.385
8.225,-0.645,-0.385
8.228,-0.650,-0.390
8.231,-0.645,-0.395
8.233,-0.650,-0.385
8.236,-0.645,-0.375
8.239,-0.645,-0.365
8.242,-0.640,-0.385
8.244,-0.630,-0.380
8.247,-0.625,-0.365
8.250,-0.625,-0.375
8.253,-0.645,-0.380
8.256,-0.645,-0.370
8.258,-0.645,-0.390
8.261,-0.625,-0.390
8.264,-0.635,-0.390
8.267,-0.635,-0.400
8.269,-0.625,-0.395
8.272,-0.610,-0.395
8.275,-0.595,-0.365
8.278,-0.575,-0.365
8.281,-0.565,-0.360
8.283,-0.560,-0.350
8.286,-0.555,-0.350
8.289,-0.545,-0.360
8.292,-0.530,-0.360
8.294,-0.520,-0.360
8.297,-0.515,-0.350
8.300,-0.500,-0.345
8.303,-0.500,-0.340
8.306,-0.495,-0.335
8.308,-0.475,-0.330
8.311,-0.475,-0.355
8.314,-0.475,-0.375
8.317,-0.485,-0.405
8.319,-0.515,-0.415
8.322,-0.520,-0.430
8.325,-0.525,-0.440
8.328,-0.540,-0.445
8.331,-0.545,-0.440
8.333,-0.545,-0.415
8.336,-0.550,-0.400
8.339,-0.555,-0.395
8.342,-0.565,-0.390
8.344,-0.605,-0.385
8.347,-0.605,-0.380
8.350,-0.615,-0.375
8.353,-0.630,-0.380
8.356,-0.635,-0.380
8.358,-0.640,-0.390
8.361,-0.635,-0.400
8.364,-0.640,-0.420
8.367,-0.635,-0.410
8.369,-0.635,-0.420
8.372,-0.625,-0.400
8.375,-0.625,-0.400
8.378,-0.605,-0.385
8.381,-0.580,-0.360
8.383,-0.535,-0.365
8.386,-0.485,-0.365
8.389,-0.390,-0.355
8.392,-0.230,-0.315
8.394,0.025,-0.285
8.397,0.385,-0.240
8.400,0.800,-0.210
8.403,1.205,-0.205
8.406,1.495,-0.255
8.408,1.625,-0.345
8.411,1.580,-0.495
8.414,1.290,-0.650
8.417,0.760,-0.820
8.419,0.120,-0.970
8.422,-0.520,-1.095
8.425,-1.160,-1.150
8.428,-1.610,-1.145
8.431,-1.560,-1.060
8.433,-1.310,-0.945
8.436,-1.035,-0.850
8.439,-0.840,-0.750
8.442,-0.745,-0.660
8.444,-0.745,-0.585
8.447,-0.775,-0.540
8.450,-0.815,-0.500
8.453,-0.825,-0.485
8.456,-0.810,-0.460
8.458,-0.785,-0.455
8.461,-0.750,-0.435
8.464,-0.735,-0.425
8.467,-0.745,-0.410
8.469,-0.745,-0.395
8.472,-0.775,-0.375
8.475,-0.785,-0.365
8.478,-0.775,-0.345
8.481,-0.775,-0.345
8.483,-0.780,-0.340
8.486,-0.780,-0.345
8.489,-0.780,-0.355
8.492,-0.760,-0.350
8.494,-0.770,-0.350
8.497,-0.770,-0.350
8.500,-0.765,-0.350
8.503,-0.775,-0.350
8.506,-0.765,-0.340
8.508,-0.740,-0.325
8.511,-0.740,-0.320
8.514,-0.735,-0.300
8.517,-0.720,-0.320
8.519,-0.720,-0.315
8.522,-0.725,-0.315
8.525,-0.725,-0.325
8.528,-0.715,-0.335
8.531,-0.715,-0.335
8.533,-0.700,-0.335
8.536,-0.705,-0.350
8.539,-0.700,-0.320
8.542,-0.710,-0.315
8.544,-0.700,-0.295
8.547,-0.685,-0.290
8.550,-0.680,-0.300
8.553,-0.675,-0.300
8.556,-0.675,-0.315
8.558,-0.675,-0.320
8.561,-0.675,-0.330
8.564,-0.665,-0.345
8.567,-0.655,-0.325
8.569,-0.655,-0.320
8.572,-0.635,-0.320
8.575,-0.625,-0.305
8.578,-0.625,-0.305
8.581,-0.605,-0.300
8.583,-0.590,-0.300
8.586,-0.595,-0.310
8.589,-0.595,-0.310
8.592,-0.595,-0.315
8.594,-0.590,-0.320
8.597,-0.585,-0.320
8.600,-0.585,-0.305
8.603,-0.570,-0.320
8.606,-0.560,-0.305
8.608,-0.545,-0.305
8.611,-0.540,-0.300
8.614,-0.525,-0.280
8.617,-0.535,-0.295
8.619,-0.535,-0.285
8.622,-0.520,-0.295
8.625,-0.525,-0.295
8.628,-0.515,-0.300
8.631,-0.535,-0.315
8.633,-0.530,-0.320
8.636,-0.520,-0.305
8.639,-0.515,-0.295
8.642,-0.505,-0.280
8.644,-0.500,-0.280
8.647,-0.495,-0.265
8.650,-0.485,-0.265
8.653,-0.485,-0.290
8.656,-0.485,-0.285
8.658,-0.500,-0.295
8.661,-0.495,-0.290
8.664,-0.505,-0.290
8.667,-0.500,-0.290
8.669,-0.500,-0.290
8.672,-0.485,-0.280
8.675,-0.475,-0.285
8.678,-0.465,-0.280
8.681,-0.450,-0.280
8.683,-0.445,-0.285
8.686,-0.440,-0.285
8.689,-0.440,-0.295
8.692,-0.440,-0.305
8.694,-0.440,-0.305
8.697,-0.435,-0.320
8.700,-0.440,-0.320
8.703,-0.420,-0.320
8.706,-0.405,-0.320
8.708,-0.375,-0.335
8.711,-0.355,-0.320
8.714,-0.350,-0.315
8.717,-0.345,-0.330
8.719,-0.360,-0.330
8.722,-0.355,-0.345
8.725,-0.370,-0.360
8.728,-0.405,-0.375
8.731,-0.420,-0.380
8.733,-0.435,-0.380
8.736,-0.445,-0.385
8.739,-0.460,-0.375
8.742,-0.465,-0.355
8.744,-0.475,-0.355
8.747,-0.470,-0.350
8.750,-0.485,-0.375
8.753,-0.500,-0.380
8.756,-0.520,-0.395
8.758,-0.550,-0.395
8.761,-0.565,-0.395
8.764,-0.585,-0.395
8.767,-0.595,-0.390
8.769,-0.605,-0.380
8.772,-0.605,-0.385
8.775,-0.605,-0.380
8.778,-0.600,-0.375
8.781,-0.600,-0.370
8.783,-0.595,-0.375
8.786,-0.605,-0.380
8.789,-0.600,-0.380
8.792,-0.620,-0.390
8.794,-0.625,-0.395
8.797,-0.625,-0.400
8.800,-0.630,-0.410
8.803,-0.625,-0.385
8.806,-0.630,-0.380
8.808,-0.620,-0.370
8.811,-0.620,-0.365
8.814,-0.615,-0.360
8.817,-0.605,-0.350
8.819,-0.590,-0.365
8.822,-0.585,-0.375
8.825,-0.585,-0.395
8.828,-0.590,-0.400
8.831,-0.585,-0.395
8.833,-0.595,-0.390
8.836,-0.585,-0.385
8.839,-0.590,-0.370
8.842,-0.570,-0.355
8.844,-0.560,-0.360
8.847,-0.540,-0.360
8.850,-0.545,-0.360
8.853,-0.545,-0.365
8.856,-0.545,-0.370
8.858,-0.545,-0.380
8.861,-0.540,-0.375
8.864,-0.535,-0.385
8.867,-0.530,-0.380
8.869,-0.525,-0.385
8.872,-0.510,-0.375
8.875,-0.510,-0.370
8.878,-0.515,-0.360
8.881,-0.520,-0.350
8.883,-0.505,-0.355
8.886,-0.525,-0.365
8.889,-0.510,-0.375
8.892,-0.500,-0.395
8.894,-0.520,-0.405
8.897,-0.530,-0.410
8.900,-0.540,-0.400
8.903,-0.550,-0.385
8.906,-0.535,-0.385
8.908,-0.540,-0.365
8.911,-0.535,-0.370
8.914,-0.545,-0.350
8.917,-0.530,-0.375
8.919,-0.540,-0.385
8.922,-0.550,-0.390
8.925,-0.560,-0.390
8.928,-0.555,-0.390
8.931,-0.570,-0.405
8.933,-0.565,-0.400
8.936,-0.565,-0.395
8.939,-0.570,-0.380
8.942,-0.565,-0.385
8.944,-0.565,-0.370
8.947,-0.565,-0.365
8.950,-0.575,-0.360
8.953,-0.590,-0.370
8.956,-0.595,-0.375
8.958,-0.600,-0.400
8.961,-0.610,-0.395
8.964,-0.620,-0.415
8.967,-0.620,-0.405
8.969,-0.630,-0.395
8.972,-0.625,-0.380
8.975,-0.615,-0.370
8.978,-0.600,-0.375
8.981,-0.595,-0.365
8.983,-0.600,-0.370
8.986,-0.615,-0.385
8.989,-0.635,-0.395
8.992,-0.635,-0.400
8.994,-0.650,-0.395
8.997,-0.660,-0.390
9.000,-0.655,-0.405
9.003,-0.650,-0.400
9.006,-0.645,-0.395
9.008,-0.625,-0.390
9.011,-0.625,-0.390
9.014,-0.625,-0.365
9.017,-0.620,-0.365
9.019,-0.630,-0.370
9.022,-0.625,-0.375
9.025,-0.635,-0.385
9.028,-0.650,-0.405
9.031,-0.660,-0.410
9.033,-0.665,-0.410
9.036,-0.660,-0.410
9.039,-0.665,-0.400
9.042,-0.655,-0.390
9.044,-0.660,-0.385
9.047,-0.640,-0.370
9.050,-0.625,-0.380
9.053,-0.630,-0.395
9.056,-0.640,-0.395
9.058,-0.640,-0.400
9.061,-0.680,-0.400
9.064,-0.680,-0.390
9.067,-0.670,-0.400
9.069,-0.670,-0.385
9.072,-0.660,-0.405
9.075,-0.650,-0.400
9.078,-0.650,-0.390
9.081,-0.645,-0.370
9.083,-0.655,-0.375
9.086,-0.650,-0.380
9.089,-0.640,-0.385
9.092,-0.660,-0.390
9.094,-0.670,-0.415
9.097,-0.660,-0.405
9.100,-0.675,-0.420
9.103,-0.665,-0.405
9.106,-0.660,-0.400
9.108,-0.645,-0.395
9.111,-0.645,-0.375
9.114,-0.635,-0.365
9.117,-0.620,-0.370
9.119,-0.605,-0.370
9.122,-0.590,-0.385
9.125,-0.585,-0.400
9.128,-0.575,-0.405
9.131,-0.565,-0.390
9.133,-0.565,-0.385
9.136,-0.550,-0.375
9.139,-0.530,-0.350
9.142,-0.520,-0.325
9.144,-0.505,-0.315
9.147,-0.480,-0.320
9.150,-0.485,-0.335
9.153,-0.485,-0.350
9.156,-0.495,-0.375
9.158,-0.515,-0.400
9.161,-0.540,-0.430
9.164,-0.560,-0.445
9.167,-0.565,-0.455
9.169,-0.555,-0.445
9.172,-0.540,-0.440
9.175,-0.535,-0.430
9.178,-0.545,-0.400
9.181,-0.540,-0.390
9.183,-0.570,-0.390
9.186,-0.575,-0.375
9.189,-0.595,-0.395
9.192,-0.625,-0.395
9.194,-0.650,-0.405
9.197,-0.660,-0.425
9.200,-0.670,-0.425
9.203,-0.665,-0.425
9.206,-0.655,-0.410
9.208,-0.640,-0.410
9.211,-0.635,-0.400
9.214,-0.635,-0.390
9.217,-0.610,-0.405
9.219,-0.600,-0.400
9.222,-0.580,-0.400
9.225,-0.575,-0.415
9.228,-0.550,-0.415
9.231,-0.510,-0.400
9.233,-0.430,-0.390
9.236,-0.280,-0.360
9.239,-0.035,-0.325
9.242,0.310,-0.265
9.244,0.705,-0.230
9.247,1.105,-0.220
9.250,1.430,-0.255
9.253,1.560,-0.345
9.256,1.500,-0.480
9.258,1.185,-0.640
9.261,0.575,-0.830
9.264,-0.065,-0.995
9.267,-0.705,-1.100
9.269,-1.345,-1.115
9.272,-1.685,-1.065
9.275,-1.540,-0.960
9.278,-1.255,-0.830
9.281,-0.990,-0.715
9.283,-0.805,-0.625
9.286,-0.740,-0.575
9.289,-0.730,-0.530
9.292,-0.760,-0.510
9.294,-0.780,-0.490
9.297,-0.800,-0.475
9.300,-0.790,-0.440
9.303,-0.770,-0.420
9.306,-0.750,-0.410
9.308,-0.745,-0.390
9.311,-0.740,-0.380
9.314,-0.750,-0.380
9.317,-0.755,-0.375
9.319,-0.755,-0.370
9.322,-0.760,-0.360
9.325,-0.755,-0.365
9.328,-0.755,-0.375
9.331,-0.770,-0.370
9.333,-0.775,-0.380
9.336,-0.750,-0.375
9.339,-0.750,-0.360
9.342,-0.745,-0.350
9.344,-0.740,-0.340
9.347,-0.735,-0.330
9.350,-0.725,-0.340
9.353,-0.730,-0.345
9.356,-0.715,-0.355
9.358,-0.715,-0.355
9.361,-0.715,-0.355
9.364,-0.715,-0.365
9.367,-0.720,-0.360
9.369,-0.705,-0.350
9.372,-0.680,-0.340
9.375,-0.670,-0.335
9.378,-0.665,-0.345
9.381,-0.665,-0.325
9.383,-0.670,-0.325
9.386,-0.660,-0.320
9.389,-0.660,-0.325
9.392,-0.655,-0.335
9.394,-0.685,-0.340
9.397,-0.660,-0.340
9.400,-0.655,-0.355
9.403,-0.670,-0.350
9.406,-0.655,-0.350
9.408,-0.630,-0.335
9.411,-0.610,-0.330
9.414,-0.600,-0.315
9.417,-0.590,-0.305
9.419,-0.590,-0.315
9.422,-0.590,-0.315
9.425,-0.600,-0.330
9.428,-0.590,-0.335
9.431,-0.600,-0.335
9.433,-0.595,-0.330
9.436,-0.600,-0.335
9.439,-0.585,-0.320
9.442,-0.585,-0.320
9.444,-0.555,-0.310
9.447,-0.545,-0.310
9.450,-0.530,-0.310
9.453,-0.530,-0.315
9.456,-0.535,-0.315
9.458,-0.530,-0.315
9.461,-0.525,-0.315
9.464,-0.535,-0.315
9.467,-0.530,-0.320
9.469,-0.525,-0.315
9.472,-0.525,-0.315
9.475,-0.520,-0.310
9.478,-0.530,-0.300
9.481,-0.525,-0.290
9.483,-0.535,-0.290
9.486,-0.520,-0.295
9.489,-0.520,-0.300
9.492,-0.520,-0.305
9.494,-0.525,-0.310
9.497,-0.520,-0.315
9.500,-0.520,-0.330
9.503,-0.520,-0.310
9.506,-0.510,-0.305
9.508,-0.500,-0.290
9.511,-0.500,-0.290
9.514,-0.495,-0.280
9.517,-0.490,-0.285
9.519,-0.485,-0.310
9.522,-0.475,-0.310
9.525,-0.470,-0.325
9.528,-0.460,-0.335
9.531,-0.465,-0.340
9.533,-0.450,-0.325
9.536,-0.435,-0.325
9.539,-0.410,-0.320
9.542,-0.390,-0.330
9.544,-0.370,-0.340
9.547,-0.365,-0.335
9.550,-0.355,-0.360
9.553,-0.370,-0.360
9.556,-0.385,-0.360
9.558,-0.400,-0.370
9.561,-0.425,-0.385
9.564,-0.445,-0.380
9.567,-0.455,-0.385
9.569,-0.475,-0.385
9.572,-0.480,-0.385
9.575,-0.485,-0.395
9.578,-0.505,-0.390
9.581,-0.505,-0.395
9.583,-0.510,-0.380
9.586,-0.520,-0.385
9.589,-0.530,-0.390
9.592,-0.560,-0.410
9.594,-0.570,-0.410
9.597,-0.590,-0.420
9.600,-0.610,-0.410
9.603,-0.630,-0.395
9.606,-0.615,-0.390
9.608,-0.640,-0.385
9.611,-0.635,-0.375
9.614,-0.625,-0.390
9.617,-0.615,-0.410
9.619,-0.615,-0.400
9.622,-0.625,-0.405
9.625,-0.645,-0.415
9.628,-0.640,-0.410
9.631,-0.650,-0.405
9.633,-0.660,-0.400
9.636,-0.635,-0.405
9.639,-0.625,-0.405
9.642,-0.630,-0.400
9.644,-0.625,-0.390
9.647,-0.620,-0.380
9.650,-0.615,-0.395
9.653,-0.615,-0.385
9.656,-0.600,-0.380
9.658,-0.615,-0.410
9.661,-0.605,-0.400
9.664,-0.605,-0.420
9.667,-0.595,-0.420
9.669,-0.590,-0.410
9.672,-0.585,-0.400
9.675,-0.580,-0.385
9.678,-0.570,-0.380
9.681,-0.575,-0.370
9.683,-0.560,-0.390
9.686,-0.555,-0.400
9.689,-0.560,-0.400
9.692,-0.560,-0.400
9.694,-0.550,-0.405
9.697,-0.555,-0.405
9.700,-0.560,-0.400
9.703,-0.555,-0.405
9.706,-0.555,-0.405
9.708,-0.550,-0.395
9.711,-0.530,-0.385
9.714,-0.525,-0.380
9.717,-0.520,-0.370
9.719,-0.520,-0.390
9.722,-0.525,-0.400
9.725,-0.530,-0.405
9.728,-0.545,-0.410
9.731,-0.545,-0.415
9.733,-0.560,-0.420
9.736,-0.560,-0.400
9.739,-0.550,-0.410
9.742,-0.545,-0.395
9.744,-0.550,-0.380
9.747,-0.545,-0.380
9.750,-0.530,-0.390
9.753,-0.545,-0.390
9.756,-0.565,-0.400
9.758,-0.590,-0.395
9.761,-0.605,-0.400
9.764,-0.605,-0.400
9.767,-0.615,-0.405
9.769,-0.625,-0.405
9.772,-0.610,-0.405
9.775,-0.640,-0.400
9.778,-0.620,-0.390
9.781,-0.620,-0.390
9.783,-0.600,-0.385
9.786,-0.595,-0.395
9.789,-0.605,-0.395
9.792,-0.605,-0.410
9.794,-0.615,-0.400
9.797,-0.635,-0.415
9.800,-0.645,-0.405
9.803,-0.645,-0.395
9.806,-0.640,-0.400
9.808,-0.640,-0.395
9.811,-0.640,-0.390
9.814,-0.640,-0.385
9.817,-0.620,-0.385
9.819,-0.625,-0.400
9.822,-0.620,-0.400
9.825,-0.640,-0.405
9.828,-0.645,-0.400
9.831,-0.655,-0.405
9.833,-0.670,-0.415
9.836,-0.665,-0.405
9.839,-0.650,-0.405
9.842,-0.645,-0.395
9.844,-0.645,-0.395
9.847,-0.650,-0.390
9.850,-0.645,-0.390
9.853,-0.655,-0.395
9.856,-0.655,-0.405
9.858,-0.675,-0.420
9.861,-0.665,-0.425
9.864,-0.665,-0.420
9.867,-0.670,-0.415
9.869,-0.675,-0.405
9.872,-0.665,-0.405
9.875,-0.665,-0.395
9.878,-0.660,-0.385
9.881,-0.650,-0.385
9.883,-0.640,-0.385
9.886,-0.650,-0.400
9.889,-0.655,-0.405
9.892,-0.660,-0.410
9.894,-0.665,-0.410
9.897,-0.675,-0.405
9.900,-0.665,-0.400
9.903,-0.670,-0.400
9.906,-0.670,-0.405
9.908,-0.660,-0.400
9.911,-0.655,-0.405
9.914,-0.655,-0.390
9.917,-0.645,-0.390
9.919,-0.645,-0.395
9.922,-0.640,-0.385
9.925,-0.645,-0.400
9.928,-0.660,-0.415
9.931,-0.645,-0.410
9.933,-0.635,-0.415
9.936,-0.625,-0.410
9.939,-0.620,-0.390
9.942,-0.610,-0.385
9.944,-0.580,-0.380
9.947,-0.570,-0.375
9.950,-0.545,-0.365
9.953,-0.545,-0.375
9.956,-0.520,-0.360
9.958,-0.525,-0.365
9.961,-0.515,-0.355
9.964,-0.515,-0.345
9.967,-0.510,-0.350
9.969,-0.505,-0.355
9.972,-0.520,-0.375
9.975,-0.520,-0.400
9.978,-0.535,-0.420
9.981,-0.550,-0.430
9.983,-0.555,-0.430
9.986,-0.555,-0.430
9.989,-0.555,-0.430
9.992,-0.555,-0.435
9.994,-0.565,-0.420
9.997,-0.580,-0.430
10.000,-0.600,-0.435
10.003,-0.620,-0.410
10.006,-0.645,-0.415
10.008,-0.660,-0.385
10.011,-0.680,-0.390
10.014,-0.675,-0.395
10.017,-0.650,-0.405
10.019,-0.655,-0.415
10.022,-0.655,-0.415
10.025,-0.640,-0.425
10.028,-0.650,-0.425
10.031,-0.645,-0.415
10.033,-0.635,-0.420
10.036,-0.625,-0.400
10.039,-0.595,-0.420
10.042,-0.545,-0.400
10.044,-0.465,-0.385
10.047,-0.350,-0.355
10.050,-0.155,-0.325
10.053,0.100,-0.280
10.056,0.460,-0.260
10.058,0.850,-0.220
10.061,1.210,-0.250
10.064,1.460,-0.320
10.067,1.530,-0.430
10.069,1.375,-0.555
10.072,0.945,-0.715
10.075,0.305,-0.875
10.078,-0.335,-1.010
10.081,-0.975,-1.095
10.083,-1.615,-1.105
10.086,-1.640,-1.030
10.089,-1.435,-0.925
10.092,-1.165,-0.820
10.094,-0.945,-0.720
10.097,-0.830,-0.635
10.100,-0.810,-0.575
10.103,-0.840,-0.540
10.106,-0.845,-0.515
10.108,-0.835,-0.485
10.111,-0.810,-0.465
10.114,-0.775,-0.435
10.117,-0.755,-0.420
10.119,-0.745,-0.405
10.122,-0.760,-0.395
10.125,-0.770,-0.390
10.128,-0.780,-0.405
10.131,-0.790,-0.405
10.133,-0.805,-0.405
10.136,-0.810,-0.395
10.139,-0.800,-0.390
10.142,-0.790,-0.370
10.144,-0.780,-0.355
10.147,-0.780,-0.345
10.150,-0.775,-0.345
10.153,-0.770,-0.350
10.156,-0.765,-0.365
10.158,-0.775,-0.375
10.161,-0.770,-0.385
10.164,-0.775,-0.385
10.167,-0.775,-0.370
10.169,-0.760,-0.375
10.172,-0.755,-0.360
10.175,-0.745,-0.335
10.178,-0.730,-0.345
10.181,-0.725,-0.340
10.183,-0.715,-0.340
10.186,-0.715,-0.355
10.189,-0.720,-0.350
10.192,-0.720,-0.370
10.194,-0.725,-0.365
10.197,-0.720,-0.360
10.200,-0.715,-0.360
10.203,-0.700,-0.345
10.206,-0.715,-0.345
10.208,-0.700,-0.350
10.211,-0.675,-0.330
10.214,-0.665,-0.320
10.217,-0.660,-0.325
10.219,-0.650,-0.320
10.222,-0.645,-0.330
10.225,-0.650,-0.350
10.228,-0.635,-0.360
10.231,-0.640,-0.365
10.233,-0.635,-0.350
10.236,-0.635,-0.340
10.239,-0.630,-0.335
10.242,-0.625,-0.325
10.244,-0.620,-0.310
10.247,-0.605,-0.310
10.250,-0.580,-0.320
10.253,-0.585,-0.330
10.256,-0.575,-0.330
10.258,-0.580,-0.340
10.261,-0.585,-0.340
10.264,-0.585,-0.335
10.267,-0.585,-0.335
10.269,-0.580,-0.340
10.272,-0.560,-0.330
10.275,-0.555,-0.330
10.278,-0.540,-0.320
10.281,-0.525,-0.300
10.283,-0.540,-0.305
10.286,-0.545,-0.310
10.289,-0.550,-0.300
10.292,-0.540,-0.315
10.294,-0.540,-0.315
10.297,-0.560,-0.330
10.300,-0.570,-0.325
10.303,-0.555,-0.320
10.306,-0.565,-0.305
10.308,-0.560,-0.300
10.311,-0.530,-0.290
10.314,-0.535,-0.280
10.317,-0.510,-0.290
10.319,-0.510,-0.300
10.322,-0.520,-0.295
10.325,-0.510,-0.320
10.328,-0.525,-0.330
10.331,-0.525,-0.325
10.333,-0.530,-0.330
10.336,-0.525,-0.315
10.339,-0.515,-0.305
10.342,-0.485,-0.315
10.344,-0.470,-0.310
10.347,-0.465,-0.310
10.350,-0.430,-0.315
10.353,-0.425,-0.325
10.356,-0.410,-0.340
10.358,-0.410,-0.340
10.361,-0.410,-0.360
10.364,-0.430,-0.370
10.367,-0.435,-0.375
10.369,-0.430,-0.390
10.372,-0.425,-0.380
10.375,-0.450,-0.390
10.378,-0.450,-0.395
10.381,-0.465,-0.365
10.383,-0.465,-0.370
10.386,-0.485,-0.375
10.389,-0.495,-0.395
10.392,-0.515,-0.400
10.394,-0.515,-0.415
10.397,-0.535,-0.430
10.400,-0.565,-0.435
10.403,-0.590,-0.415
10.406,-0.595,-0.410
10.408,-0.600,-0.395
10.411,-0.610,-0.390
10.414,-0.620,-0.390
10.417,-0.610,-0.385
10.419,-0.605,-0.405
10.422,-0.625,-0.395
10.425,-0.635,-0.405
10.428,-0.650,-0.410
10.431,-0.660,-0.415
10.433,-0.680,-0.410
10.436,-0.665,-0.410
10.439,-0.650,-0.410
10.442,-0.650,-0.415
10.444,-0.650,-0.395
10.447,-0.640,-0.380
10.450,-0.645,-0.385
10.453,-0.635,-0.395
10.456,-0.640,-0.395
10.458,-0.635,-0.415
10.461,-0.645,-0.410
10.464,-0.640,-0.420
10.467,-0.645,-0.415
10.469,-0.645,-0.420
10.472,-0.635,-0.405
10.475,-0.625,-0.395
10.478,-0.620,-0.380
10.481,-0.605,-0.375
10.483,-0.590,-0.385
10.486,-0.585,-0.390
10.489,-0.585,-0.405
10.492,-0.585,-0.405
10.494,-0.590,-0.420
10.497,-0.600,-0.415
10.500,-0.610,-0.410
10.503,-0.590,-0.400
10.506,-0.590,-0.395
10.508,-0.575,-0.400
10.511,-0.555,-0.400
10.514,-0.555,-0.405
10.517,-0.550,-0.375
10.519,-0.550,-0.390
10.522,-0.550,-0.390
10.525,-0.560,-0.400
10.528,-0.555,-0.410
10.531,-0.560,-0.420
10.533,-0.555,-0.425
10.536,-0.560,-0.420
10.539,-0.570,-0.420
10.542,-0.565,-0.400
10.544,-0.570,-0.390
10.547,-0.550,-0.385
10.550,-0.545,-0.380
10.553,-0.550,-0.395
10.556,-0.550,-0.400
10.558,-0.560,-0.405
10.561,-0.565,-0.420
10.564,-0.575,-0.420
10.567,-0.590,-0.415
10.569,-0.595,-0.400
10.572,-0.590,-0.415
10.575,-0.590,-0.410
10.578,-0.580,-0.390
10.581,-0.585,-0.400
10.583,-0.585,-0.400
10.586,-0.590,-0.390
10.589,-0.600,-0.400
10.592,-0.605,-0.405
10.594,-0.610,-0.415
10.597,-0.615,-0.415
10.600,-0.630,-0.435
10.603,-0.630,-0.410
10.606,-0.625,-0.425
10.608,-0.620,-0.410
10.611,-0.630,-0.400
10.614,-0.635,-0.390
10.617,-0.630,-0.390
10.619,-0.630,-0.395
10.622,-0.620,-0.410
10.625,-0.630,-0.425
10.628,-0.625,-0.425
10.631,-0.650,-0.430
10.633,-0.655,-0.430
10.636,-0.655,-0.420
10.639,-0.665,-0.410
10.642,-0.650,-0.405
10.644,-0.665,-0.405
10.647,-0.655,-0.395
10.650,-0.650,-0.395
10.653,-0.660,-0.405
10.656,-0.665,-0.400
10.658,-0.675,-0.405
10.661,-0.680,-0.410
10.664,-0.685,-0.420
10.667,-0.680,-0.420
10.669,-0.670,-0.420
10.672,-0.670,-0.420
10.675,-0.675,-0.410
10.678,-0.680,-0.405
10.681,-0.660,-0.400
10.683,-0.655,-0.385
10.686,-0.660,-0.380
10.689,-0.660,-0.400
10.692,-0.655,-0.405
10.694,-0.660,-0.420
10.697,-0.670,-0.435
10.700,-0.685,-0.425
10.703,-0.690,-0.415
10.706,-0.680,-0.400
10.708,-0.680,-0.390
10.711,-0.660,-0.390
10.714,-0.660,-0.395
10.717,-0.645,-0.390
10.719,-0.645,-0.405
10.722,-0.650,-0.410
10.725,-0.660,-0.410
10.728,-0.670,-0.405
10.731,-0.675,-0.405
10.733,-0.675,-0.405
10.736,-0.680,-0.400
10.739,-0.675,-0.405
10.742,-0.670,-0.410
10.744,-0.660,-0.410
10.747,-0.660,-0.400
10.750,-0.650,-0.390
10.753,-0.655,-0.390
10.756,-0.645,-0.390
10.758,-0.660,-0.405
10.761,-0.665,-0.400
10.764,-0.660,-0.410
10.767,-0.660,-0.420
10.769,-0.645,-0.415
10.772,-0.630,-0.410
10.775,-0.630,-0.405
10.778,-0.610,-0.375
10.781,-0.600,-0.380
10.783,-0.575,-0.370
10.786,-0.560,-0.365
10.789,-0.545,-0.365
10.792,-0.545,-0.350
10.794,-0.530,-0.360
10.797,-0.525,-0.350
10.800,-0.520,-0.365
10.803,-0.510,-0.365
10.806,-0.510,-0.380
10.808,-0.515,-0.390
10.811,-0.530,-0.410
10.814,-0.540,-0.430
10.817,-0.535,-0.435
10.819,-0.545,-0.450
10.822,-0.550,-0.440
10.825,-0.565,-0.435
10.828,-0.565,-0.430
10.831,-0.585,-0.430
10.833,-0.595,-0.435
10.836,-0.605,-0.425
10.839,-0.640,-0.415
10.842,-0.650,-0.395
10.844,-0.640,-0.400
10.847,-0.650,-0.400
10.850,-0.640,-0.390
10.853,-0.635,-0.385
10.856,-0.640,-0.405
10.858,-0.640,-0.415
10.861,-0.640,-0.430
10.864,-0.635,-0.440
10.867,-0.640,-0.435
10.869,-0.635,-0.425
10.872,-0.620,-0.415
10.875,-0.590,-0.400
10.878,-0.565,-0.395
10.881,-0.510,-0.385
10.883,-0.440,-0.365
10.886,-0.280,-0.345
10.889,-0.045,-0.290
10.892,0.265,-0.250
10.894,0.635,-0.200
10.897,1.050,-0.195
10.900,1.365,-0.230
10.903,1.580,-0.305
10.906,1.610,-0.430
10.908,1.470,-0.595
10.911,1.100,-0.765
10.914,0.495,-0.930
10.917,-0.145,-1.100
10.919,-0.785,-1.215
10.922,-1.425,-1.240
10.925,-1.605,-1.205
10.928,-1.490,-1.090
10.931,-1.220,-0.990
10.933,-0.970,-0.895
10.936,-0.800,-0.800
10.939,-0.735,-0.705
10.942,-0.750,-0.630
10.944,-0.805,-0.570
10.947,-0.835,-0.535
10.950,-0.825,-0.490
10.953,-0.800,-0.475
10.956,-0.765,-0.460
10.958,-0.740,-0.445
10.961,-0.725,-0.440
10.964,-0.745,-0.420
10.967,-0.765,-0.410
10.969,-0.775,-0.395
10.972,-0.790,-0.380
10.975,-0.795,-0.370
10.978,-0.795,-0.360
10.981,-0.790,-0.360
10.983,-0.775,-0.360
10.986,-0.770,-0.370
10.989,-0.785,-0.360
10.992,-0.785,-0.370
10.994,-0.770,-0.365
10.997,-0.775,-0.360
11.000,-0.775,-0.345
11.003,-0.775,-0.360
11.006,-0.755,-0.355
11.008,-0.760,-0.345
11.011,-0.750,-0.345
11.014,-0.740,-0.335
11.017,-0.720,-0.330
11.019,-0.730,-0.335
11.022,-0.730,-0.340
11.025,-0.720,-0.340
11.028,-0.720,-0.350
11.031,-0.725,-0.360
11.033,-0.720,-0.360
11.036,-0.715,-0.345
11.039,-0.705,-0.345
11.042,-0.705,-0.325
11.044,-0.700,-0.325
11.047,-0.680,-0.320
11.050,-0.670,-0.325
11.053,-0.665,-0.345
11.056,-0.665,-0.340
11.058,-0.665,-0.340
11.061,-0.670,-0.345
11.064,-0.660,-0.345
11.067,-0.650,-0.330
11.069,-0.650,-0.310
11.072,-0.640,-0.340
11.075,-0.620,-0.325
11.078,-0.625,-0.320
11.081,-0.605,-0.320
11.083,-0.600,-0.320
11.086,-0.595,-0.315
11.089,-0.590,-0.320
11.092,-0.590,-0.325
11.094,-0.590,-0.335
11.097,-0.585,-0.340
11.100,-0.570,-0.345
11.103,-0.565,-0.340
11.106,-0.565,-0.335
11.108,-0.550,-0.310
11.111,-0.540,-0.305
11.114,-0.540,-0.305
11.117,-0.525,-0.305
11.119,-0.525,-0.310
11.122,-0.515,-0.320
11.125,-0.515,-0.330
11.128,-0.510,-0.330
11.131,-0.515,-0.335
11.133,-0.525,-0.335
11.136,-0.530,-0.320
11.139,-0.510,-0.305
11.142,-0.505,-0.310
11.144,-0.490,-0.300
11.147,-0.485,-0.300
11.150,-0.485,-0.300
11.153,-0.475,-0.310
11.156,-0.465,-0.310
11.158,-0.465,-0.325
11.161,-0.470,-0.320
11.164,-0.465,-0.325
11.167,-0.465,-0.330
11.169,-0.460,-0.320
11.172,-0.450,-0.320
11.175,-0.450,-0.320
11.178,-0.440,-0.310
11.181,-0.430,-0.305
11.183,-0.415,-0.315
11.186,-0.400,-0.320
11.189,-0.375,-0.325
11.192,-0.380,-0.340
11.194,-0.365,-0.350
11.197,-0.355,-0.355
11.200,-0.340,-0.380
11.203,-0.330,-0.370
11.206,-0.340,-0.370
11.208,-0.330,-0.365
11.211,-0.335,-0.365
11.214,-0.335,-0.355
11.217,-0.340,-0.365
11.219,-0.355,-0.385
11.222,-0.370,-0.395
11.225,-0.400,-0.410
11.228,-0.430,-0.405
11.231,-0.455,-0.425
11.233,-0.480,-0.425
11.236,-0.505,-0.415
11.239,-0.525,-0.425
11.242,-0.530,-0.425
11.244,-0.535,-0.415
11.247,-0.550,-0.400
11.250,-0.565,-0.390
11.253,-0.580,-0.395
11.256,-0.580,-0.400
11.258,-0.595,-0.415
11.261,-0.600,-0.435
11.264,-0.610,-0.430
11.267,-0.615,-0.430
11.269,-0.620,-0.415
11.272,-0.615,-0.410
11.275,-0.625,-0.395
11.278,-0.620,-0.400
11.281,-0.605,-0.395
11.283,-0.600,-0.390
11.286,-0.610,-0.405
11.289,-0.605,-0.410
11.292,-0.605,-0.405
11.294,-0.605,-0.415
11.297,-0.630,-0.415
11.300,-0.615,-0.415
11.303,-0.610,-0.415
11.306,-0.605,-0.410
11.308,-0.595,-0.400
11.311,-0.580,-0.395
11.314,-0.575,-0.395
11.317,-0.570,-0.380
11.319,-0.570,-0.395
11.322,-0.560,-0.395
11.325,-0.570,-0.405
11.328,-0.570,-0.410
11.331,-0.560,-0.430
11.333,-0.545,-0.415
11.336,-0.560,-0.415
11.339,-0.550,-0.400
11.342,-0.550,-0.390
11.344,-0.550,-0.390
11.347,-0.535,-0.385
11.350,-0.525,-0.390
11.353,-0.505,-0.405
11.356,-0.520,-0.410
11.358,-0.525,-0.410
11.361,-0.535,-0.415
11.364,-0.535,-0.410
11.367,-0.540,-0.420
11.369,-0.545,-0.405
11.372,-0.535,-0.420
11.375,-0.535,-0.410
11.378,-0.530,-0.400
11.381,-0.530,-0.390
11.383,-0.525,-0.390
11.386,-0.525,-0.395
11.389,-0.540,-0.390
11.392,-0.545,-0.410
11.394,-0.560,-0.420
11.397,-0.545,-0.425
11.400,-0.550,-0.430
11.403,-0.560,-0.420
11.406,-0.575,-0.415
11.408,-0.560,-0.405
11.411,-0.560,-0.385
11.414,-0.555,-0.375
11.417,-0.560,-0.380
11.419,-0.555,-0.395
11.422,-0.560,-0.405
11.425,-0.575,-0.420
11.428,-0.595,-0.420
11.431,-0.605,-0.415
11.433,-0.605,-0.415
11.436,-0.605,-0.410
11.439,-0.605,-0.405
11.442,-0.600,-0.405
11.444,-0.595,-0.405
11.447,-0.600,-0.405
11.450,-0.595,-0.395
11.453,-0.605,-0.405
11.456,-0.595,-0.390
11.458,-0.600,-0.405
11.461,-0.615,-0.430
11.464,-0.620,-0.435
11.467,-0.625,-0.445
11.469,-0.635,-0.430
11.472,-0.635,-0.415
11.475,-0.630,-0.400
11.478,-0.630,-0.400
11.481,-0.635,-0.395
11.483,-0.635,-0.380
11.486,-0.625,-0.410
11.489,-0.635,-0.410
11.492,-0.625,-0.420
11.494,-0.635,-0.440
11.497,-0.630,-0.420
11.500,-0.655,-0.420
11.503,-0.645,-0.395
11.506,-0.655,-0.405
11.508,-0.645,-0.400
11.511,-0.640,-0.405
11.514,-0.625,-0.395
11.517,-0.635,-0.390
11.519,-0.635,-0.405
11.522,-0.640,-0.410
11.525,-0.655,-0.410
11.528,-0.650,-0.415
11.531,-0.665,-0.410
11.533,-0.655,-0.425
11.536,-0.665,-0.420
11.539,-0.655,-0.415
11.542,-0.670,-0.420
11.544,-0.660,-0.390
11.547,-0.655,-0.385
11.550,-0.650,-0.380
11.553,-0.655,-0.390
11.556,-0.645,-0.405
11.558,-0.650,-0.410
11.561,-0.650,-0.430
11.564,-0.655,-0.420
11.567,-0.665,-0.430
11.569,-0.670,-0.420
11.572,-0.670,-0.415
11.575,-0.660,-0.400
11.578,-0.650,-0.390
11.581,-0.650,-0.385
11.583,-0.635,-0.385
11.586,-0.640,-0.395
11.589,-0.640,-0.415
11.592,-0.640,-0.405
11.594,-0.645,-0.415
11.597,-0.655,-0.420
11.600,-0.645,-0.420
11.603,-0.655,-0.410
11.606,-0.645,-0.405
11.608,-0.635,-0.405
11.611,-0.615,-0.405
11.614,-0.600,-0.400
11.617,-0.585,-0.395
11.619,-0.580,-0.380
11.622,-0.575,-0.385
11.625,-0.565,-0.370
11.628,-0.550,-0.360
11.631,-0.540,-0.360
11.633,-0.525,-0.370
11.636,-0.525,-0.375
11.639,-0.525,-0.380
11.642,-0.515,-0.390
11.644,-0.515,-0.415
11.647,-0.540,-0.435
11.650,-0.545,-0.440
11.653,-0.555,-0.470
11.656,-0.570,-0.470
11.658,-0.570,-0.460
11.661,-0.575,-0.445
11.664,-0.595,-0.455
11.667,-0.605,-0.450
11.669,-0.615,-0.430
11.672,-0.635,-0.430
11.675,-0.635,-0.420
11.678,-0.650,-0.415
11.681,-0.645,-0.405
11.683,-0.650,-0.410
11.686,-0.650,-0.415
11.689,-0.650,-0.415
11.692,-0.650,-0.425
11.694,-0.650,-0.440
11.697,-0.655,-0.460
11.700,-0.645,-0.455
11.703,-0.640,-0.445
11.706,-0.630,-0.430
11.708,-0.605,-0.415
11.711,-0.565,-0.385
11.714,-0.520,-0.380
11.717,-0.410,-0.355
11.719,-0.270,-0.345
11.722,-0.040,-0.290
11.725,0.275,-0.275
11.728,0.635,-0.240
11.731,1.005,-0.215
11.733,1.320,-0.245
11.736,1.495,-0.320
11.739,1.515,-0.430
11.742,1.370,-0.575
11.744,1.000,-0.755
11.747,0.420,-0.935
11.750,-0.220,-1.090
11.753,-0.860,-1.220
11.756,-1.395,-1.245
11.758,-1.540,-1.200
11.761,-1.430,-1.100
11.764,-1.200,-0.985
11.767,-0.965,-0.895
11.769,-0.815,-0.790
11.772,-0.765,-0.710
11.775,-0.770,-0.640
11.778,-0.795,-0.575
11.781,-0.835,-0.540
11.783,-0.825,-0.495
11.786,-0.800,-0.480
11.789,-0.775,-0.455
11.792,-0.750,-0.445
11.794,-0.750,-0.435
11.797,-0.750,-0.430
11.800,-0.760,-0.430
11.803,-0.785,-0.425
11.806,-0.790,-0.405
11.808,-0.800,-0.385
11.811,-0.790,-0.375
11.814,-0.780,-0.370
11.817,-0.775,-0.370
11.819,-0.775,-0.375
11.822,-0.795,-0.370
11.825,-0.785,-0.375
11.828,-0.800,-0.375
11.831,-0.795,-0.375
11.833,-0.800,-0.370
11.836,-0.790,-0.370
11.839,-0.775,-0.370
11.842,-0.765,-0.365
11.844,-0.755,-0.355
11.847,-0.745,-0.360
11.850,-0.745,-0.345
11.853,-0.745,-0.340
11.856,-0.735,-0.340
11.858,-0.725,-0.350
11.861,-0.730,-0.355
11.864,-0.740,-0.360
11.867,-0.730,-0.380
11.869,-0.720,-0.370
11.872,-0.720,-0.365
11.875,-0.715,-0.355
11.878,-0.705,-0.340
11.881,-0.690,-0.330
11.883,-0.675,-0.330
11.886,-0.670,-0.330
11.889,-0.650,-0.330
11.892,-0.670,-0.335
11.894,-0.670,-0.345
11.897,-0.660,-0.350
11.900,-0.670,-0.360
11.903,-0.670,-0.340
11.906,-0.665,-0.330
11.908,-0.650,-0.335
11.911,-0.640,-0.330
11.914,-0.620,-0.325
11.917,-0.615,-0.325
11.919,-0.620,-0.335
11.922,-0.620,-0.335
11.925,-0.615,-0.340
11.928,-0.605,-0.330
11.931,-0.615,-0.340
11.933,-0.610,-0.345
11.936,-0.585,-0.330
11.939,-0.590,-0.345
11.942,-0.570,-0.345
11.944,-0.565,-0.335
11.947,-0.550,-0.305
11.950,-0.535,-0.305
11.953,-0.545,-0.315
11.956,-0.540,-0.330
11.958,-0.540,-0.320
11.961,-0.535,-0.325
11.964,-0.530,-0.340
11.967,-0.540,-0.345
11.969,-0.550,-0.335
11.972,-0.545,-0.325
11.975,-0.540,-0.310
11.978,-0.535,-0.310
11.981,-0.535,-0.300
11.983,-0.525,-0.300
11.986,-0.515,-0.315
11.989,-0.515,-0.315
11.992,-0.510,-0.320
11.994,-0.510,-0.330
11.997,-0.510,-0.330
12.000,-0.515,-0.325
12.003,-0.520,-0.330
12.006,-0.500,-0.315
12.008,-0.505,-0.315
12.011,-0.495,-0.310
12.014,-0.480,-0.315
12.017,-0.455,-0.325
12.019,-0.455,-0.315
12.022,-0.445,-0.330
12.025,-0.420,-0.340
12.028,-0.410,-0.345
12.031,-0.400,-0.355
12.033,-0.390,-0.365
12.036,-0.385,-0.370
12.039,-0.370,-0.365
12.042,-0.375,-0.375
12.044,-0.370,-0.360
12.047,-0.390,-0.370
12.050,-0.395,-0.380
12.053,-0.395,-0.385
12.056,-0.410,-0.395
12.058,-0.420,-0.420
12.061,-0.450,-0.405
12.064,-0.470,-0.410
12.067,-0.500,-0.425
12.069,-0.520,-0.415
12.072,-0.535,-0.415
12.075,-0.550,-0.400
12.078,-0.535,-0.410
12.081,-0.545,-0.405
12.083,-0.550,-0.410
12.086,-0.560,-0.410
12.089,-0.575,-0.410
12.092,-0.590,-0.420
12.094,-0.605,-0.420
12.097,-0.610,-0.420
12.100,-0.610,-0.425
12.103,-0.610,-0.420
12.106,-0.635,-0.410
12.108,-0.635,-0.420
12.111,-0.630,-0.410
12.114,-0.625,-0.400
12.117,-0.620,-0.390
12.119,-0.610,-0.400
12.122,-0.605,-0.395
12.125,-0.620,-0.400
12.128,-0.610,-0.410
12.131,-0.595,-0.420
12.133,-0.610,-0.425
12.136,-0.620,-0.410
12.139,-0.620,-0.390
12.142,-0.625,-0.390
12.144,-0.605,-0.390
12.147,-0.600,-0.385
12.150,-0.585,-0.390
12.153,-0.580,-0.410
12.156,-0.570,-0.405
12.158,-0.565,-0.410
12.161,-0.570,-0.415
12.164,-0.565,-0.405
12.167,-0.570,-0.405
12.169,-0.570,-0.400
12.172,-0.575,-0.395
12.175,-0.565,-0.400
12.178,-0.555,-0.390
12.181,-0.530,-0.380
12.183,-0.525,-0.385
12.186,-0.525,-0.385
12.189,-0.520,-0.390
12.192,-0.520,-0.400
12.194,-0.520,-0.405
12.197,-0.520,-0.430
12.200,-0.525,-0.425
12.203,-0.530,-0.410
12.206,-0.520,-0.410
12.208,-0.520,-0.390
12.211,-0.520,-0.385
12.214,-0.515,-0.370
12.217,-0.500,-0.370
12.219,-0.510,-0.385
12.222,-0.510,-0.395
12.225,-0.520,-0.405
12.228,-0.540,-0.430
12.231,-0.535,-0.435
12.233,-0.535,-0.430
12.236,-0.545,-0.400
12.239,-0.540,-0.390
12.242,-0.545,-0.385
12.244,-0.535,-0.395
12.247,-0.525,-0.380
12.250,-0.530,-0.380
12.253,-0.540,-0.390
12.256,-0.555,-0.400
12.258,-0.560,-0.405
12.261,-0.575,-0.415
12.264,-0.580,-0.420
12.267,-0.580,-0.425
12.269,-0.580,-0.425
12.272,-0.575,-0.420
12.275,-0.585,-0.405
12.278,-0.585,-0.385
12.281,-0.590,-0.380
12.283,-0.595,-0.375
12.286,-0.610,-0.385
12.289,-0.615,-0.390
12.292,-0.600,-0.420
12.294,-0.610,-0.420
12.297,-0.620,-0.430
12.300,-0.620,-0.425
12.303,-0.620,-0.415
12.306,-0.610,-0.405
12.308,-0.610,-0.400
12.311,-0.610,-0.390
12.314,-0.600,-0.385
12.317,-0.590,-0.385
12.319,-0.585,-0.410
12.322,-0.595,-0.415
12.325,-0.615,-0.405
12.328,-0.625,-0.415
12.331,-0.635,-0.425
12.333,-0.635,-0.420
12.336,-0.635,-0.425
12.339,-0.635,-0.415
12.342,-0.620,-0.415
12.344,-0.620,-0.400
12.347,-0.625,-0.400
12.350,-0.620,-0.390
12.353,-0.610,-0.390
12.356,-0.615,-0.390
12.358,-0.635,-0.395
12.361,-0.640,-0.420
12.364,-0.630,-0.420
12.367,-0.645,-0.435
12.369,-0.650,-0.425
12.372,-0.650,-0.415
12.375,-0.650,-0.410
12.378,-0.630,-0.395
12.381,-0.630,-0.390
12.383,-0.615,-0.390
12.386,-0.615,-0.390
12.389,-0.620,-0.405
12.392,-0.620,-0.410
12.394,-0.630,-0.415
12.397,-0.640,-0.430
12.400,-0.650,-0.420
12.403,-0.645,-0.410
12.406,-0.655,-0.400
12.408,-0.650,-0.410
12.411,-0.640,-0.395
12.414,-0.630,-0.395
12.417,-0.615,-0.400
12.419,-0.615,-0.395
12.422,-0.620,-0.405
12.425,-0.615,-0.400
12.428,-0.620,-0.400
12.431,-0.625,-0.410
12.433,-0.635,-0.430
12.436,-0.640,-0.415
12.439,-0.630,-0.435
12.442,-0.630,-0.425
12.444,-0.610,-0.400
12.447,-0.605,-0.395
12.450,-0.585,-0.375
12.453,-0.575,-0.385
12.456,-0.565,-0.390
12.458,-0.545,-0.395
12.461,-0.530,-0.400
12.464,-0.535,-0.390
12.467,-0.525,-0.375
12.469,-0.510,-0.360
12.472,-0.505,-0.345
12.475,-0.475,-0.330
12.478,-0.455,-0.350
12.481,-0.460,-0.355
12.483,-0.460,-0.375
12.486,-0.485,-0.415
12.489,-0.505,-0.445
12.492,-0.520,-0.450
12.494,-0.545,-0.460
12.497,-0.550,-0.460
12.500,-0.545,-0.465
12.503,-0.555,-0.440
12.506,-0.530,-0.445
12.508,-0.550,-0.430
12.511,-0.560,-0.425
12.514,-0.565,-0.405
12.517,-0.575,-0.400
12.519,-0.615,-0.390
12.522,-0.620,-0.380
12.525,-0.625,-0.395
12.528,-0.630,-0.405
12.531,-0.625,-0.430
12.533,-0.625,-0.445
12.536,-0.625,-0.430
12.539,-0.620,-0.425
12.542,-0.615,-0.420
12.544,-0.610,-0.420
12.547,-0.615,-0.405
12.550,-0.600,-0.390
12.553,-0.590,-0.415
12.556,-0.565,-0.410
12.558,-0.540,-0.420
12.561,-0.515,-0.415
12.564,-0.480,-0.415
12.567,-0.390,-0.405
12.569,-0.260,-0.370
12.572,-0.040,-0.315
12.575,0.230,-0.270
12.578,0.585,-0.240
12.581,0.945,-0.225
12.583,1.270,-0.235
12.586,1.470,-0.290
12.589,1.530,-0.405
12.592,1.425,-0.540
12.594,1.105,-0.695
12.597,0.545,-0.855
12.600,-0.095,-1.020
12.603,-0.735,-1.130
12.606,-1.340,-1.170
12.608,-1.535,-1.115
12.611,-1.470,-1.015
12.614,-1.245,-0.890
12.617,-1.005,-0.785
12.619,-0.845,-0.695
12.622,-0.775,-0.635
12.625,-0.770,-0.580
12.628,-0.795,-0.560
12.631,-0.820,-0.535
12.633,-0.840,-0.520
12.636,-0.825,-0.480
12.639,-0.790,-0.460
12.642,-0.760,-0.430
12.644,-0.740,-0.405
12.647,-0.740,-0.395
12.650,-0.750,-0.385
12.653,-0.760,-0.395
12.656,-0.770,-0.400
12.658,-0.765,-0.410
12.661,-0.775,-0.400
12.664,-0.770,-0.385
12.667,-0.770,-0.375
12.669,-0.770,-0.375
12.672,-0.760,-0.370
12.675,-0.770,-0.355
12.678,-0.750,-0.365
12.681,-0.740,-0.370
12.683,-0.735,-0.350
12.686,-0.735,-0.375
12.689,-0.730,-0.370
12.692,-0.735,-0.365
12.694,-0.725,-0.360
12.697,-0.735,-0.365
12.700,-0.710,-0.370
12.703,-0.710,-0.370
12.706,-0.705,-0.375
12.708,-0.705,-0.350
12.711,-0.685,-0.350
12.714,-0.690,-0.335
12.717,-0.670,-0.335
12.719,-0.670,-0.335
12.722,-0.660,-0.345
12.725,-0.675,-0.360
12.728,-0.660,-0.370
12.731,-0.660,-0.380
12.733,-0.655,-0.365
12.736,-0.655,-0.355
12.739,-0.635,-0.340
12.742,-0.625,-0.325
12.744,-0.610,-0.330
12.747,-0.610,-0.330
12.750,-0.600,-0.335
12.753,-0.595,-0.335
12.756,-0.600,-0.345
12.758,-0.600,-0.350
12.761,-0.600,-0.355
12.764,-0.600,-0.355
12.767,-0.600,-0.350
12.769,-0.590,-0.350
12.772,-0.580,-0.345
12.775,-0.565,-0.345
12.778,-0.550,-0.335
12.781,-0.555,-0.335
12.783,-0.530,-0.315
12.786,-0.525,-0.325
12.789,-0.525,-0.320
12.792,-0.520,-0.330
12.794,-0.535,-0.335
12.797,-0.525,-0.350
12.800,-0.525,-0.360
12.803,-0.530,-0.350
12.806,-0.525,-0.345
12.808,-0.520,-0.325
12.811,-0.510,-0.320
12.814,-0.500,-0.300
12.817,-0.485,-0.310
12.819,-0.480,-0.310
12.822,-0.475,-0.325
12.825,-0.475,-0.330
12.828,-0.495,-0.335
12.831,-0.500,-0.345
12.833,-0.500,-0.345
12.836,-0.510,-0.330
12.839,-0.505,-0.315
12.842,-0.500,-0.300
12.844,-0.500,-0.310
12.847,-0.480,-0.310
12.850,-0.475,-0.310
12.853,-0.465,-0.325
12.856,-0.455,-0.320
12.858,-0.445,-0.320
12.861,-0.455,-0.330
12.864,-0.455,-0.340
12.867,-0.440,-0.345
12.869,-0.435,-0.345
12.872,-0.430,-0.350
12.875,-0.410,-0.345
12.878,-0.405,-0.350
12.881,-0.385,-0.335
12.883,-0.380,-0.345
12.886,-0.355,-0.360
12.889,-0.345,-0.375
12.892,-0.340,-0.390
12.894,-0.345,-0.410
12.897,-0.375,-0.410
12.900,-0.380,-0.415
12.903,-0.400,-0.410
12.906,-0.415,-0.400
12.908,-0.445,-0.390
12.911,-0.445,-0.400
12.914,-0.445,-0.395
12.917,-0.445,-0.400
12.919,-0.450,-0.410
12.922,-0.485,-0.415
12.925,-0.505,-0.420
12.928,-0.525,-0.425
12.931,-0.540,-0.420
12.933,-0.545,-0.430
12.936,-0.550,-0.425
12.939,-0.565,-0.430
12.942,-0.570,-0.415
12.944,-0.570,-0.400
12.947,-0.590,-0.400
12.950,-0.580,-0.395
12.953,-0.585,-0.390
12.956,-0.600,-0.405
12.958,-0.605,-0.415
12.961,-0.620,-0.435
12.964,-0.605,-0.440
12.967,-0.605,-0.450
12.969,-0.625,-0.430
12.972,-0.615,-0.425
12.975,-0.590,-0.420
12.978,-0.595,-0.405
12.981,-0.565,-0.395
12.983,-0.570,-0.385
12.986,-0.565,-0.410
12.989,-0.560,-0.410
12.992,-0.575,-0.430
12.994,-0.590,-0.420
12.997,-0.590,-0.420
13.000,-0.590,-0.420
13.003,-0.595,-0.425
13.006,-0.590,-0.415
13.008,-0.565,-0.410
13.011,-0.545,-0.410
13.014,-0.540,-0.405
13.017,-0.525,-0.395
13.019,-0.520,-0.395
13.022,-0.525,-0.395
13.025,-0.515,-0.400
13.028,-0.515,-0.405
13.031,-0.520,-0.425
13.033,-0.515,-0.435
13.036,-0.520,-0.430
13.039,-0.515,-0.425
13.042,-0.520,-0.415
13.044,-0.505,-0.395
13.047,-0.515,-0.395
13.050,-0.500,-0.390
13.053,-0.500,-0.395
13.056,-0.490,-0.400
13.058,-0.485,-0.420
13.061,-0.500,-0.425
13.064,-0.505,-0.430
13.067,-0.515,-0.430
13.069,-0.510,-0.425
13.072,-0.515,-0.410
13.075,-0.530,-0.405
13.078,-0.510,-0.405
13.081,-0.505,-0.395
13.083,-0.495,-0.390
13.086,-0.490,-0.410
13.089,-0.500,-0.410
13.092,-0.505,-0.405
13.094,-0.515,-0.420
13.097,-0.520,-0.435
13.100,-0.535,-0.425
13.103,-0.535,-0.435
13.106,-0.545,-0.430
13.108,-0.545,-0.425
13.111,-0.550,-0.415
13.114,-0.550,-0.405
13.117,-0.555,-0.375
13.119,-0.555,-0.400
13.122,-0.565,-0.400
13.125,-0.565,-0.410
13.128,-0.575,-0.425
13.131,-0.575,-0.445
13.133,-0.590,-0.440
13.136,-0.610,-0.430
13.139,-0.590,-0.420
13.142,-0.600,-0.415
13.144,-0.585,-0.395
13.147,-0.580,-0.395
13.150,-0.575,-0.395
13.153,-0.580,-0.410
13.156,-0.590,-0.415
13.158,-0.610,-0.410
13.161,-0.620,-0.420
13.164,-0.620,-0.425
13.167,-0.630,-0.425
13.169,-0.630,-0.420
13.172,-0.620,-0.410
13.175,-0.625,-0.435
13.178,-0.605,-0.420
13.181,-0.610,-0.400
13.183,-0.600,-0.390
13.186,-0.595,-0.395
13.189,-0.600,-0.390
13.192,-0.625,-0.395
13.194,-0.615,-0.405
13.197,-0.630,-0.430
13.200,-0.635,-0.430
13.203,-0.645,-0.430
13.206,-0.650,-0.425
13.208,-0.650,-0.415
13.211,-0.645,-0.405
13.214,-0.630,-0.395
13.217,-0.625,-0.385
13.219,-0.625,-0.400
13.222,-0.625,-0.410
13.225,-0.625,-0.420
13.228,-0.620,-0.410
13.231,-0.640,-0.425
13.233,-0.630,-0.430
13.236,-0.645,-0.415
13.239,-0.640,-0.405
13.242,-0.635,-0.405
13.244,-0.635,-0.405
13.247,-0.650,-0.405
13.250,-0.630,-0.405
13.253,-0.640,-0.410
13.256,-0.640,-0.405
13.258,-0.630,-0.405
13.261,-0.630,-0.405
13.264,-0.645,-0.425
13.267,-0.640,-0.435
13.269,-0.630,-0.425
13.272,-0.630,-0.415
13.275,-0.625,-0.405
13.278,-0.620,-0.400
13.281,-0.620,-0.385
13.283,-0.600,-0.390
13.286,-0.605,-0.400
13.289,-0.595,-0.395
13.292,-0.595,-0.420
13.294,-0.595,-0.415
13.297,-0.580,-0.420
13.300,-0.575,-0.405
13.303,-0.565,-0.395
13.306,-0.525,-0.380
13.308,-0.505,-0.365
13.311,-0.480,-0.350
13.314,-0.465,-0.345
13.317,-0.450,-0.350
13.319,-0.450,-0.360
13.322,-0.465,-0.375
13.325,-0.475,-0.395
13.328,-0.500,-0.420
13.331,-0.515,-0.450
13.333,-0.535,-0.455
13.336,-0.540,-0.465
13.339,-0.540,-0.455
13.342,-0.530,-0.450
13.344,-0.525,-0.440
13.347,-0.525,-0.425
13.350,-0.530,-0.400
13.353,-0.555,-0.405
13.356,-0.560,-0.405
13.358,-0.575,-0.410
13.361,-0.590,-0.415
13.364,-0.605,-0.425
13.367,-0.635,-0.435
13.369,-0.625,-0.430
13.372,-0.630,-0.415
13.375,-0.620,-0.410
13.378,-0.620,-0.410
13.381,-0.605,-0.405
13.383,-0.590,-0.415
13.386,-0.580,-0.415
13.389,-0.595,-0.415
13.392,-0.570,-0.425
13.394,-0.540,-0.415
13.397,-0.500,-0.420
13.400,-0.455,-0.415
13.403,-0.375,-0.390
13.406,-0.255,-0.375
13.408,-0.055,-0.345
13.411,0.210,-0.285
13.414,0.545,-0.235
13.417,0.910,-0.205
13.419,1.240,-0.220
13.422,1.455,-0.280
13.425,1.525,-0.375
13.428,1.430,-0.515
13.431,1.140,-0.670
13.433,0.635,-0.835
13.436,-0.005,-0.980
13.439,-0.645,-1.090
13.442,-1.270,-1.145
13.444,-1.520,-1.100
13.447,-1.485,-1.005
13.450,-1.285,-0.895
13.453,-1.045,-0.805
13.456,-0.875,-0.710
13.458,-0.790,-0.640
13.461,-0.770,-0.590
13.464,-0.805,-0.540
13.467,-0.815,-0.520
13.469,-0.825,-0.480
13.472,-0.805,-0.455
13.475,-0.755,-0.435
13.478,-0.740,-0.420
13.481,-0.705,-0.405
13.483,-0.700,-0.390
13.486,-0.710,-0.400
13.489,-0.725,-0.390
13.492,-0.735,-0.385
13.494,-0.745,-0.385
13.497,-0.765,-0.375
13.500,-0.770,-0.380
13.503,-0.755,-0.390
13.506,-0.755,-0.380
13.508,-0.755,-0.385
13.511,-0.750,-0.375
13.514,-0.750,-0.355
13.517,-0.725,-0.340
13.519,-0.715,-0.345
13.522,-0.705,-0.360
13.525,-0.705,-0.360
13.528,-0.700,-0.375
13.531,-0.700,-0.375
13.533,-0.710,-0.370
13.536,-0.705,-0.360
13.539,-0.695,-0.345
13.542,-0.690,-0.340
13.544,-0.690,-0.330
13.547,-0.675,-0.335
13.550,-0.670,-0.335
13.553,-0.670,-0.345
13.556,-0.665,-0.355
13.558,-0.660,-0.355
13.561,-0.660,-0.360
13.564,-0.670,-0.360
13.567,-0.660,-0.350
13.569,-0.655,-0.350
13.572,-0.645,-0.345
13.575,-0.635,-0.355
13.578,-0.625,-0.340
13.581,-0.620,-0.345
13.583,-0.600,-0.340
13.586,-0.605,-0.330
13.589,-0.590,-0.335
13.592,-0.595,-0.325
13.594,-0.590,-0.340
13.597,-0.595,-0.355
13.600,-0.590,-0.365
13.603,-0.580,-0.355
13.606,-0.575,-0.350
13.608,-0.570,-0.345
13.611,-0.560,-0.335
13.614,-0.555,-0.325
13.617,-0.540,-0.320
13.619,-0.530,-0.315
13.622,-0.525,-0.335
13.625,-0.525,-0.335
13.628,-0.520,-0.345
13.631,-0.530,-0.345
13.633,-0.535,-0.340
13.636,-0.535,-0.320
13.639,-0.540,-0.325
13.642,-0.520,-0.320
13.644,-0.510,-0.310
13.647,-0.500,-0.325
13.650,-0.485,-0.325
13.653,-0.490,-0.330
13.656,-0.470,-0.330
13.658,-0.480,-0.325
13.661,-0.495,-0.320
13.664,-0.490,-0.330
13.667,-0.500,-0.325
13.669,-0.495,-0.325
13.672,-0.495,-0.325
13.675,-0.485,-0.310
13.678,-0.490,-0.305
13.681,-0.490,-0.295
13.683,-0.485,-0.295
13.686,-0.480,-0.305
13.689,-0.470,-0.310
13.692,-0.465,-0.330
13.694,-0.455,-0.345
13.697,-0.450,-0.335
13.700,-0.445,-0.345
13.703,-0.435,-0.350
13.706,-0.420,-0.335
13.708,-0.405,-0.325
13.711,-0.370,-0.330
13.714,-0.360,-0.335
13.717,-0.335,-0.345
13.719,-0.345,-0.365
13.722,-0.345,-0.365
13.725,-0.355,-0.385
13.728,-0.365,-0.395
13.731,-0.380,-0.390
13.733,-0.395,-0.400
13.736,-0.415,-0.410
13.739,-0.430,-0.410
13.742,-0.435,-0.395
13.744,-0.450,-0.395
13.747,-0.460,-0.390
13.750,-0.470,-0.375
13.753,-0.475,-0.385
13.756,-0.500,-0.395
13.758,-0.515,-0.410
13.761,-0.530,-0.420
13.764,-0.555,-0.430
13.767,-0.580,-0.435
13.769,-0.600,-0.420
13.772,-0.590,-0.400
13.775,-0.575,-0.400
13.778,-0.580,-0.395
13.781,-0.575,-0.390
13.783,-0.560,-0.390
13.786,-0.570,-0.395
13.789,-0.570,-0.405
13.792,-0.580,-0.400
13.794,-0.600,-0.410
13.797,-0.610,-0.415
13.800,-0.615,-0.405
13.803,-0.620,-0.410
13.806,-0.630,-0.400
13.808,-0.605,-0.410
13.811,-0.610,-0.395
13.814,-0.585,-0.395
13.817,-0.580,-0.375
13.819,-0.570,-0.390
13.822,-0.565,-0.390
13.825,-0.570,-0.400
13.828,-0.575,-0.410
13.831,-0.580,-0.415
13.833,-0.580,-0.420
13.836,-0.570,-0.415
13.839,-0.575,-0.405
13.842,-0.565,-0.385
13.844,-0.555,-0.375
13.847,-0.540,-0.370
13.850,-0.520,-0.385
13.853,-0.510,-0.400
13.856,-0.515,-0.390
13.858,-0.510,-0.405
13.861,-0.515,-0.410
13.864,-0.515,-0.405
13.867,-0.520,-0.400
13.869,-0.530,-0.400
13.872,-0.515,-0.395
13.875,-0.510,-0.390
13.878,-0.510,-0.390
13.881,-0.490,-0.385
13.883,-0.480,-0.380
13.886,-0.485,-0.385
13.889,-0.490,-0.385
13.892,-0.495,-0.400
13.894,-0.495,-0.415
13.897,-0.505,-0.415
13.900,-0.505,-0.420
13.903,-0.510,-0.410
13.906,-0.510,-0.395
13.908,-0.500,-0.390
13.911,-0.495,-0.380
13.914,-0.500,-0.385
13.917,-0.495,-0.380
13.919,-0.490,-0.400
13.922,-0.505,-0.400
13.925,-0.515,-0.400
13.928,-0.520,-0.400
13.931,-0.530,-0.405
13.933,-0.545,-0.405
13.936,-0.560,-0.390
13.939,-0.550,-0.400
13.942,-0.560,-0.400
13.944,-0.560,-0.395
13.947,-0.560,-0.390
13.950,-0.550,-0.380
13.953,-0.560,-0.385
13.956,-0.565,-0.390
13.958,-0.575,-0.385
13.961,-0.585,-0.400
13.964,-0.595,-0.425
13.967,-0.605,-0.415
13.969,-0.615,-0.400
13.972,-0.605,-0.395
13.975,-0.605,-0.385
13.978,-0.600,-0.385
13.981,-0.600,-0.375
13.983,-0.585,-0.385
13.986,-0.585,-0.400
13.989,-0.590,-0.395
13.992,-0.590,-0.400
13.994,-0.595,-0.405
13.997,-0.605,-0.395
14.000,-0.620,-0.400
14.003,-0.625,-0.395
14.006,-0.620,-0.395
14.008,-0.620,-0.395
14.011,-0.610,-0.400
14.014,-0.615,-0.390
14.017,-0.600,-0.380
14.019,-0.605,-0.380
14.022,-0.605,-0.390
14.025,-0.605,-0.385
14.028,-0.610,-0.395
14.031,-0.620,-0.405
14.033,-0.625,-0.415
14.036,-0.630,-0.405
14.039,-0.635,-0.395
14.042,-0.635,-0.380
14.044,-0.630,-0.375
14.047,-0.620,-0.360
14.050,-0.620,-0.360
14.053,-0.605,-0.380
14.056,-0.605,-0.380
14.058,-0.610,-0.405
14.061,-0.620,-0.405
14.064,-0.630,-0.410
14.067,-0.640,-0.405
14.069,-0.650,-0.395
14.072,-0.635,-0.395
14.075,-0.640,-0.390
14.078,-0.635,-0.380
14.081,-0.635,-0.385
14.083,-0.625,-0.385
14.086,-0.615,-0.380
14.089,-0.615,-0.385
14.092,-0.610,-0.380
14.094,-0.610,-0.400
14.097,-0.595,-0.410
14.100,-0.590,-0.415
14.103,-0.590,-0.400
14.106,-0.585,-0.395
14.108,-0.580,-0.385
14.111,-0.560,-0.375
14.114,-0.535,-0.365
14.117,-0.515,-0.350
14.119,-0.510,-0.355
14.122,-0.475,-0.360
14.125,-0.470,-0.360
14.128,-0.465,-0.350
14.131,-0.470,-0.345
14.133,-0.465,-0.345
14.136,-0.470,-0.345
14.139,-0.475,-0.355
14.142,-0.475,-0.380
14.144,-0.490,-0.395
14.147,-0.500,-0.405
14.150,-0.515,-0.410
14.153,-0.515,-0.410
14.156,-0.500,-0.400
14.158,-0.495,-0.405
14.161,-0.520,-0.405
14.164,-0.545,-0.400
14.167,-0.560,-0.410
14.169,-0.555,-0.400
14.172,-0.555,-0.410
14.175,-0.580,-0.395
14.178,-0.600,-0.375
14.181,-0.600,-0.370
14.183,-0.605,-0.370
14.186,-0.610,-0.370
14.189,-0.605,-0.380
14.192,-0.605,-0.405
14.194,-0.610,-0.410
14.197,-0.615,-0.420
14.200,-0.615,-0.420
14.203,-0.615,-0.410
14.206,-0.615,-0.395
14.208,-0.595,-0.390
14.211,-0.575,-0.380
14.214,-0.555,-0.375
14.217,-0.510,-0.365
14.219,-0.460,-0.375
14.222,-0.420,-0.375
14.225,-0.340,-0.360
14.228,-0.215,-0.345
14.231,-0.020,-0.300
14.233,0.230,-0.265
14.236,0.570,-0.225
14.239,0.940,-0.200
14.242,1.280,-0.215
14.244,1.510,-0.285
14.247,1.590,-0.375
14.250,1.495,-0.495
14.253,1.135,-0.655
14.256,0.515,-0.835
14.258,-0.125,-0.995
14.261,-0.765,-1.075
14.264,-1.405,-1.100
14.267,-1.585,-1.025
14.269,-1.445,-0.905
14.272,-1.175,-0.780
14.275,-0.950,-0.660
14.278,-0.790,-0.565
14.281,-0.715,-0.485
14.283,-0.695,-0.455
14.286,-0.710,-0.445
14.289,-0.710,-0.445
14.292,-0.725,-0.435
14.294,-0.725,-0.420
14.297,-0.725,-0.415
14.300,-0.740,-0.405
14.303,-0.745,-0.400
14.306,-0.755,-0.380
14.308,-0.765,-0.365
14.311,-0.755,-0.365
14.314,-0.740,-0.360
14.317,-0.730,-0.350
14.319,-0.715,-0.350
14.322,-0.720,-0.345
14.325,-0.715,-0.350
14.328,-0.725,-0.355
14.331,-0.715,-0.365
14.333,-0.715,-0.375
14.336,-0.715,-0.370
14.339,-0.715,-0.350
14.342,-0.710,-0.350
14.344,-0.700,-0.335
14.347,-0.710,-0.315
14.350,-0.690,-0.320
14.353,-0.680,-0.320
14.356,-0.675,-0.325
14.358,-0.675,-0.345
14.361,-0.685,-0.350
14.364,-0.670,-0.360
14.367,-0.690,-0.355
14.369,-0.700,-0.340
14.372,-0.685,-0.340
14.375,-0.670,-0.335
14.378,-0.650,-0.310
14.381,-0.635,-0.310
14.383,-0.625,-0.315
14.386,-0.615,-0.325
14.389,-0.615,-0.315
14.392,-0.615,-0.320
14.394,-0.615,-0.325
14.397,-0.615,-0.330
14.400,-0.620,-0.345
14.403,-0.610,-0.330
14.406,-0.600,-0.340
14.408,-0.590,-0.320
14.411,-0.580,-0.330
14.414,-0.575,-0.320
14.417,-0.565,-0.295
14.419,-0.565,-0.305
14.422,-0.555,-0.295
14.425,-0.545,-0.300
14.428,-0.550,-0.325
14.431,-0.545,-0.325
14.433,-0.545,-0.345
14.436,-0.560,-0.335
14.439,-0.535,-0.330
14.442,-0.540,-0.310
14.444,-0.525,-0.305
14.447,-0.515,-0.290
14.450,-0.510,-0.290
14.453,-0.490,-0.295
14.456,-0.485,-0.300
14.458,-0.470,-0.310
14.461,-0.485,-0.325
14.464,-0.485,-0.315
14.467,-0.485,-0.325
14.469,-0.495,-0.310
14.472,-0.480,-0.310
14.475,-0.490,-0.305
14.478,-0.475,-0.290
14.481,-0.475,-0.290
14.483,-0.465,-0.280
14.486,-0.460,-0.275
14.489,-0.435,-0.280
14.492,-0.445,-0.295
14.494,-0.450,-0.300
14.497,-0.455,-0.315
14.500,-0.445,-0.315
14.503,-0.445,-0.320
14.506,-0.450,-0.315
14.508,-0.435,-0.305
14.511,-0.425,-0.290
14.514,-0.410,-0.295
14.517,-0.385,-0.285
14.519,-0.380,-0.310
14.522,-0.365,-0.305
14.525,-0.350,-0.325
14.528,-0.330,-0.345
14.531,-0.330,-0.360
14.533,-0.330,-0.355
14.536,-0.330,-0.355
14.539,-0.330,-0.355
14.542,-0.335,-0.355
14.544,-0.330,-0.370
14.547,-0.345,-0.360
14.550,-0.345,-0.365
14.553,-0.355,-0.360
14.556,-0.375,-0.370
14.558,-0.400,-0.370
14.561,-0.410,-0.370
14.564,-0.440,-0.380
14.567,-0.455,-0.405
14.569,-0.475,-0.405
14.572,-0.480,-0.415
14.575,-0.480,-0.405
14.578,-0.490,-0.390
14.581,-0.510,-0.375
14.583,-0.505,-0.360
14.586,-0.515,-0.370
14.589,-0.525,-0.370
14.592,-0.535,-0.385
14.594,-0.545,-0.385
14.597,-0.565,-0.400
14.600,-0.565,-0.410
14.603,-0.575,-0.405
14.606,-0.580,-0.395
14.608,-0.575,-0.385
14.611,-0.575,-0.375
14.614,-0.565,-0.365
14.617,-0.560,-0.360
14.619,-0.550,-0.375
14.622,-0.555,-0.375
14.625,-0.565,-0.380
14.628,-0.580,-0.395
14.631,-0.570,-0.395
14.633,-0.570,-0.390
14.636,-0.585,-0.375
14.639,-0.575,-0.380
14.642,-0.565,-0.375
14.644,-0.560,-0.375
14.647,-0.550,-0.380
14.650,-0.550,-0.370
14.653,-0.530,-0.375
14.656,-0.535,-0.380
14.658,-0.535,-0.370
14.661,-0.550,-0.375
14.664,-0.545,-0.385
14.667,-0.545,-0.390
14.669,-0.540,-0.385
14.672,-0.535,-0.395
14.675,-0.525,-0.390
14.678,-0.510,-0.375
14.681,-0.495,-0.360
14.683,-0.490,-0.365
14.686,-0.490,-0.370
14.689,-0.500,-0.375
14.692,-0.495,-0.380
14.694,-0.495,-0.390
14.697,-0.490,-0.400
14.700,-0.505,-0.405
14.703,-0.495,-0.380
14.706,-0.495,-0.380
14.708,-0.495,-0.375
14.711,-0.495,-0.370
14.714,-0.475,-0.370
14.717,-0.480,-0.375
14.719,-0.470,-0.370
14.722,-0.470,-0.390
14.725,-0.475,-0.395
14.728,-0.485,-0.385
14.731,-0.500,-0.390
14.733,-0.495,-0.390
14.736,-0.505,-0.380
14.739,-0.505,-0.385
14.742,-0.500,-0.385
14.744,-0.495,-0.380
14.747,-0.505,-0.380
14.750,-0.495,-0.370
14.753,-0.510,-0.375
14.756,-0.510,-0.385
14.758,-0.515,-0.375
14.761,-0.520,-0.385
14.764,-0.525,-0.405
14.767,-0.525,-0.400
14.769,-0.550,-0.395
14.772,-0.550,-0.395
14.775,-0.540,-0.380
14.778,-0.550,-0.370
14.781,-0.545,-0.360
14.783,-0.540,-0.360
14.786,-0.540,-0.370
14.789,-0.540,-0.385
14.792,-0.540,-0.400
14.794,-0.565,-0.410
14.797,-0.565,-0.395
14.800,-0.570,-0.405
14.803,-0.595,-0.385
14.806,-0.590,-0.400
14.808,-0.595,-0.360
14.811,-0.580,-0.365
14.814,-0.570,-0.365
14.817,-0.555,-0.385
14.819,-0.555,-0.380
14.822,-0.560,-0.385
14.825,-0.570,-0.385
14.828,-0.565,-0.380
14.831,-0.575,-0.390
14.833,-0.585,-0.400
14.836,-0.590,-0.395
14.839,-0.590,-0.400
14.842,-0.590,-0.380
14.844,-0.585,-0.380
14.847,-0.575,-0.370
14.850,-0.575,-0.350
14.853,-0.575,-0.360
14.856,-0.585,-0.365
14.858,-0.580,-0.380
14.861,-0.585,-0.390
14.864,-0.600,-0.390
14.867,-0.605,-0.410
14.869,-0.600,-0.395
14.872,-0.600,-0.400
14.875,-0.605,-0.380
14.878,-0.595,-0.380
14.881,-0.590,-0.355
14.883,-0.590,-0.355
14.886,-0.585,-0.360
14.889,-0.590,-0.370
14.892,-0.590,-0.380
14.894,-0.595,-0.400
14.897,-0.605,-0.395
14.900,-0.605,-0.395
14.903,-0.620,-0.385
14.906,-0.605,-0.395
14.908,-0.610,-0.380
14.911,-0.595,-0.365
14.914,-0.590,-0.375
14.917,-0.590,-0.360
14.919,-0.580,-0.360
14.922,-0.590,-0.355
14.925,-0.585,-0.350
14.928,-0.600,-0.380
14.931,-0.605,-0.390
14.933,-0.605,-0.395
14.936,-0.615,-0.385
14.939,-0.600,-0.385
14.942,-0.610,-0.385
14.944,-0.595,-0.360
14.947,-0.590,-0.355
14.950,-0.570,-0.345
14.953,-0.565,-0.335
14.956,-0.555,-0.360
14.958,-0.545,-0.365
14.961,-0.545,-0.390
14.964,-0.540,-0.390
14.967,-0.535,-0.395
14.969,-0.540,-0.375
14.972,-0.530,-0.360
14.975,-0.500,-0.325
14.978,-0.490,-0.315
14.981,-0.470,-0.305
14.983,-0.445,-0.295
14.986,-0.425,-0.305
14.989,-0.430,-0.330
14.992,-0.435,-0.360
14.994,-0.455,-0.375
14.997,-0.465,-0.400
15.000,-0.495,-0.430
15.003,-0.510,-0.435
15.006,-0.505,-0.425
15.008,-0.495,-0.425
15.011,-0.490,-0.415
15.014,-0.490,-0.390
15.017,-0.500,-0.375
15.019,-0.500,-0.370
15.022,-0.525,-0.365
15.025,-0.535,-0.365
15.028,-0.560,-0.370
15.031,-0.570,-0.385
15.033,-0.585,-0.385
15.036,-0.605,-0.390
15.039,-0.610,-0.400
15.042,-0.615,-0.385
15.044,-0.600,-0.380
15.047,-0.590,-0.360
15.050,-0.590,-0.350
15.053,-0.570,-0.360
15.056,-0.575,-0.365
15.058,-0.565,-0.385
15.061,-0.570,-0.400
15.064,-0.555,-0.405
15.067,-0.555,-0.400
15.069,-0.535,-0.390
15.072,-0.510,-0.375
15.075,-0.475,-0.370
15.078,-0.385,-0.335
15.081,-0.260,-0.295
15.083,-0.055,-0.245
15.086,0.250,-0.215
15.089,0.615,-0.170
15.092,1.025,-0.160
15.094,1.350,-0.215
15.097,1.550,-0.320
15.100,1.570,-0.470
15.103,1.380,-0.645
15.106,0.930,-0.855
15.108,0.290,-1.045
15.111,-0.350,-1.180
15.114,-0.990,-1.230
15.117,-1.410,-1.200
15.119,-1.440,-1.110
15.122,-1.260,-0.975
15.125,-0.995,-0.875
15.128,-0.795,-0.780
15.131,-0.685,-0.700
15.133,-0.675,-0.635
15.136,-0.710,-0.580
15.139,-0.755,-0.530
15.142,-0.770,-0.495
15.144,-0.770,-0.460
15.147,-0.735,-0.415
15.150,-0.700,-0.390
15.153,-0.655,-0.380
15.156,-0.660,-0.370
15.158,-0.675,-0.380
15.161,-0.695,-0.380
15.164,-0.720,-0.380
15.167,-0.735,-0.375
15.169,-0.735,-0.350
15.172,-0.745,-0.350
15.175,-0.735,-0.335
15.178,-0.730,-0.330
15.181,-0.720,-0.335
15.183,-0.695,-0.325
15.186,-0.695,-0.330
15.189,-0.705,-0.330
15.192,-0.690,-0.335
15.194,-0.715,-0.330
15.197,-0.705,-0.330
15.200,-0.710,-0.330
15.203,-0.705,-0.315
15.206,-0.705,-0.320
15.208,-0.695,-0.320
15.211,-0.680,-0.315
15.214,-0.665,-0.310
15.217,-0.660,-0.310
15.219,-0.655,-0.310
15.222,-0.650,-0.295
15.225,-0.655,-0.305
15.228,-0.655,-0.315
15.231,-0.645,-0.320
15.233,-0.655,-0.330
15.236,-0.660,-0.325
15.239,-0.650,-0.325
15.242,-0.630,-0.305
15.244,-0.635,-0.285
15.247,-0.630,-0.280
15.250,-0.615,-0.275
15.253,-0.595,-0.285
15.256,-0.580,-0.290
15.258,-0.575,-0.315
15.261,-0.570,-0.315
15.264,-0.575,-0.315
15.267,-0.575,-0.315
15.269,-0.575,-0.305
15.272,-0.575,-0.300
15.275,-0.560,-0.285
15.278,-0.555,-0.285
15.281,-0.550,-0.285
15.283,-0.535,-0.280
15.286,-0.540,-0.290
15.289,-0.535,-0.285
15.292,-0.535,-0.300
15.294,-0.535,-0.285
15.297,-0.515,-0.290
15.300,-0.515,-0.295
15.303,-0.510,-0.305
15.306,-0.500,-0.295
15.308,-0.490,-0.285
15.311,-0.490,-0.275
15.314,-0.475,-0.270
15.317,-0.465,-0.255
15.319,-0.450,-0.250
15.322,-0.450,-0.265
15.325,-0.445,-0.285
15.328,-0.450,-0.290
15.331,-0.450,-0.300
15.333,-0.450,-0.305
15.336,-0.455,-0.295
15.339,-0.460,-0.285
15.342,-0.445,-0.270
15.344,-0.440,-0.255
15.347,-0.435,-0.260
15.350,-0.420,-0.255
15.353,-0.405,-0.265
15.356,-0.410,-0.270
15.358,-0.405,-0.295
15.361,-0.405,-0.295
15.364,-0.405,-0.295
15.367,-0.415,-0.290
15.369,-0.410,-0.290
15.372,-0.385,-0.290
15.375,-0.365,-0.290
15.378,-0.350,-0.285
15.381,-0.350,-0.285
15.383,-0.330,-0.275
15.386,-0.320,-0.285
15.389,-0.300,-0.295
15.392,-0.285,-0.310
15.394,-0.275,-0.320
15.397,-0.270,-0.335
15.400,-0.285,-0.350
15.403,-0.290,-0.350
15.406,-0.285,-0.350
15.408,-0.290,-0.355
15.411,-0.285,-0.340
15.414,-0.300,-0.340
15.417,-0.305,-0.335
15.419,-0.320,-0.345
15.422,-0.335,-0.350
15.425,-0.340,-0.385
15.428,-0.365,-0.380
15.431,-0.395,-0.400
15.433,-0.435,-0.395
15.436,-0.465,-0.395
15.439,-0.470,-0.385
15.442,-0.475,-0.385
15.444,-0.480,-0.370
15.447,-0.480,-0.365
15.450,-0.490,-0.355
15.453,-0.500,-0.370
15.456,-0.510,-0.360
15.458,-0.510,-0.375
15.461,-0.525,-0.380
15.464,-0.540,-0.385
15.467,-0.555,-0.390
15.469,-0.555,-0.395
15.472,-0.570,-0.405
15.475,-0.565,-0.380
15.478,-0.555,-0.375
15.481,-0.550,-0.370
15.483,-0.545,-0.350
15.486,-0.555,-0.350
15.489,-0.545,-0.360
15.492,-0.545,-0.380
15.494,-0.555,-0.380
15.497,-0.550,-0.380
15.500,-0.550,-0.405
15.503,-0.555,-0.400
15.506,-0.555,-0.390
15.508,-0.560,-0.370
15.511,-0.545,-0.360
15.514,-0.530,-0.350
15.517,-0.510,-0.350
15.519,-0.515,-0.365
15.522,-0.515,-0.375
15.525,-0.515,-0.365
15.528,-0.510,-0.370
15.531,-0.515,-0.365
15.533,-0.520,-0.380
15.536,-0.515,-0.385
15.539,-0.500,-0.380
15.542,-0.500,-0.375
15.544,-0.495,-0.370
15.547,-0.490,-0.355
15.550,-0.490,-0.345
15.553,-0.485,-0.350
15.556,-0.490,-0.350
15.558,-0.490,-0.355
15.561,-0.480,-0.365
15.564,-0.480,-0.385
15.567,-0.475,-0.390
15.569,-0.490,-0.390
15.572,-0.485,-0.380
15.575,-0.495,-0.370
15.578,-0.485,-0.360
15.581,-0.470,-0.345
15.583,-0.475,-0.345
15.586,-0.465,-0.355
15.589,-0.465,-0.360
15.592,-0.480,-0.365
15.594,-0.475,-0.380
15.597,-0.495,-0.385
15.600,-0.500,-0.375
15.603,-0.500,-0.370
15.606,-0.490,-0.365
15.608,-0.500,-0.375
15.611,-0.485,-0.375
15.614,-0.495,-0.365
15.617,-0.485,-0.355
15.619,-0.485,-0.355
15.622,-0.515,-0.355
15.625,-0.520,-0.370
15.628,-0.525,-0.370
15.631,-0.535,-0.370
15.633,-0.540,-0.380
15.636,-0.555,-0.385
15.639,-0.550,-0.390
15.642,-0.545,-0.380
15.644,-0.545,-0.380
15.647,-0.540,-0.370
15.650,-0.530,-0.350
15.653,-0.535,-0.360
15.656,-0.545,-0.360
15.658,-0.540,-0.380
15.661,-0.545,-0.385
15.664,-0.550,-0.400
15.667,-0.565,-0.390
15.669,-0.570,-0.385
15.672,-0.580,-0.375
15.675,-0.585,-0.370
15.678,-0.575,-0.375
15.681,-0.575,-0.360
15.683,-0.575,-0.365
15.686,-0.580,-0.365
15.689,-0.580,-0.375
15.692,-0.565,-0.370
15.694,-0.570,-0.370
15.697,-0.590,-0.380
15.700,-0.605,-0.385
15.703,-0.590,-0.390
15.706,-0.585,-0.395
15.708,-0.585,-0.385
15.711,-0.570,-0.380
15.714,-0.575,-0.370
15.717,-0.570,-0.345
15.719,-0.560,-0.370
15.722,-0.570,-0.365
15.725,-0.585,-0.375
15.728,-0.585,-0.390
15.731,-0.590,-0.390
15.733,-0.590,-0.400
15.736,-0.600,-0.400
15.739,-0.590,-0.395
15.742,-0.595,-0.375
15.744,-0.595,-0.375
15.747,-0.585,-0.370
15.750,-0.580,-0.360
15.753,-0.580,-0.360
15.756,-0.585,-0.370
15.758,-0.580,-0.395
15.761,-0.590,-0.390
15.764,-0.590,-0.395
15.767,-0.595,-0.380
15.769,-0.605,-0.385
15.772,-0.615,-0.395
15.775,-0.615,-0.380
15.778,-0.600,-0.380
15.781,-0.595,-0.375
15.783,-0.590,-0.375
15.786,-0.570,-0.375
15.789,-0.575,-0.360
15.792,-0.585,-0.370
15.794,-0.585,-0.355
15.797,-0.585,-0.385
15.800,-0.585,-0.390
15.803,-0.585,-0.385
15.806,-0.575,-0.390
15.808,-0.570,-0.375
15.811,-0.560,-0.385
15.814,-0.555,-0.370
15.817,-0.530,-0.345
15.819,-0.520,-0.350
15.822,-0.515,-0.370
15.825,-0.510,-0.365
15.828,-0.500,-0.345
15.831,-0.490,-0.345
15.833,-0.480,-0.330
15.836,-0.480,-0.320
15.839,-0.460,-0.315
15.842,-0.455,-0.315
15.844,-0.440,-0.320
15.847,-0.435,-0.355
15.850,-0.425,-0.370
15.853,-0.435,-0.415
15.856,-0.455,-0.430
15.858,-0.480,-0.435
15.861,-0.500,-0.425
15.864,-0.505,-0.430
15.867,-0.505,-0.425
15.869,-0.510,-0.415
15.872,-0.510,-0.405
15.875,-0.520,-0.400
15.878,-0.515,-0.400
15.881,-0.530,-0.385
15.883,-0.550,-0.360
15.886,-0.570,-0.365
15.889,-0.580,-0.365
15.892,-0.595,-0.385
15.894,-0.605,-0.395
15.897,-0.595,-0.410
15.900,-0.600,-0.410
15.903,-0.610,-0.415
15.906,-0.600,-0.405
15.908,-0.595,-0.395
15.911,-0.595,-0.380
15.914,-0.575,-0.375
15.917,-0.555,-0.365
15.919,-0.535,-0.385
15.922,-0.520,-0.385
15.925,-0.485,-0.390
15.928,-0.435,-0.385
15.931,-0.335,-0.355
15.933,-0.200,-0.325
15.936,0.025,-0.265
15.939,0.335,-0.210
15.942,0.710,-0.175
15.944,1.085,-0.185
15.947,1.375,-0.225
15.950,1.515,-0.340
15.953,1.470,-0.500
15.956,1.215,-0.695
15.958,0.725,-0.895
15.961,0.085,-1.075
15.964,-0.555,-1.210
15.967,-1.155,-1.250
15.969,-1.375,-1.185
15.972,-1.335,-1.065
15.975,-1.130,-0.915
15.978,-0.900,-0.785
15.981,-0.740,-0.670
15.983,-0.670,-0.580
15.986,-0.660,-0.535
15.989,-0.700,-0.515
15.992,-0.710,-0.495
15.994,-0.720,-0.485
15.997,-0.720,-0.455
16.000,-0.715,-0.435
16.003,-0.705,-0.405
16.006,-0.695,-0.380
16.008,-0.680,-0.375
16.011,-0.685,-0.355
16.014,-0.690,-0.355
16.017,-0.705,-0.340
16.019,-0.695,-0.340
16.022,-0.700,-0.355
16.025,-0.710,-0.345
16.028,-0.715,-0.360
16.031,-0.715,-0.340
16.033,-0.715,-0.345
16.036,-0.715,-0.335
16.039,-0.710,-0.335
16.042,-0.700,-0.330
16.044,-0.685,-0.330
16.047,-0.670,-0.320
16.050,-0.690,-0.310
16.053,-0.670,-0.305
16.056,-0.670,-0.315
16.058,-0.655,-0.315
16.061,-0.670,-0.330
16.064,-0.670,-0.345
16.067,-0.660,-0.340
16.069,-0.655,-0.345
16.072,-0.655,-0.325
16.075,-0.630,-0.315
16.078,-0.635,-0.305
16.081,-0.610,-0.300
16.083,-0.610,-0.290
16.086,-0.590,-0.305
16.089,-0.605,-0.310
16.092,-0.605,-0.325
16.094,-0.610,-0.320
16.097,-0.615,-0.335
16.100,-0.610,-0.320
16.103,-0.595,-0.315
16.106,-0.575,-0.310
16.108,-0.575,-0.310
16.111,-0.550,-0.300
16.114,-0.560,-0.300
16.117,-0.550,-0.290
16.119,-0.545,-0.300
16.122,-0.545,-0.295
16.125,-0.545,-0.295
16.128,-0.540,-0.300
16.131,-0.525,-0.320
16.133,-0.530,-0.320
16.136,-0.530,-0.325
16.139,-0.525,-0.315
16.142,-0.515,-0.300
16.144,-0.515,-0.280
16.147,-0.485,-0.280
16.150,-0.480,-0.265
16.153,-0.475,-0.280
16.156,-0.465,-0.285
16.158,-0.460,-0.295
16.161,-0.470,-0.305
16.164,-0.475,-0.320
16.167,-0.470,-0.320
16.169,-0.475,-0.310
16.172,-0.470,-0.285
16.175,-0.455,-0.275
16.178,-0.445,-0.285
16.181,-0.430,-0.275
16.183,-0.435,-0.275
16.186,-0.425,-0.280
16.189,-0.425,-0.295
16.192,-0.415,-0.290
16.194,-0.430,-0.295
16.197,-0.435,-0.305
16.200,-0.445,-0.305
16.203,-0.435,-0.300
16.206,-0.420,-0.310
16.208,-0.420,-0.300
16.211,-0.410,-0.300
16.214,-0.405,-0.275
16.217,-0.385,-0.280
16.219,-0.375,-0.270
16.222,-0.370,-0.285
16.225,-0.350,-0.300
16.228,-0.350,-0.315
16.231,-0.340,-0.340
16.233,-0.325,-0.360
16.236,-0.320,-0.350
16.239,-0.310,-0.330
16.242,-0.295,-0.340
16.244,-0.285,-0.335
16.247,-0.290,-0.325
16.250,-0.275,-0.330
16.253,-0.280,-0.345
16.256,-0.295,-0.365
16.258,-0.320,-0.370
16.261,-0.330,-0.380
16.264,-0.360,-0.375
16.267,-0.380,-0.385
16.269,-0.400,-0.390
16.272,-0.400,-0.385
16.275,-0.420,-0.385
16.278,-0.425,-0.385
16.281,-0.430,-0.375
16.283,-0.430,-0.370
16.286,-0.455,-0.375
16.289,-0.480,-0.370
16.292,-0.485,-0.370
16.294,-0.485,-0.385
16.297,-0.500,-0.390
16.300,-0.520,-0.400
16.303,-0.540,-0.400
16.306,-0.535,-0.400
16.308,-0.525,-0.395
16.311,-0.535,-0.385
16.314,-0.525,-0.365
16.317,-0.525,-0.360
16.319,-0.515,-0.360
16.322,-0.525,-0.375
16.325,-0.525,-0.380
16.328,-0.530,-0.400
16.331,-0.550,-0.400
16.333,-0.555,-0.390
16.336,-0.565,-0.395
16.339,-0.550,-0.390
16.342,-0.540,-0.385
16.344,-0.520,-0.380
16.347,-0.520,-0.380
16.350,-0.505,-0.370
16.353,-0.500,-0.370
16.356,-0.500,-0.370
16.358,-0.505,-0.370
16.361,-0.510,-0.390
16.364,-0.515,-0.395
