'Elapsed time','MLII','V1'
'seconds','mV','mV'
0.000,-5.955,-5.635
0.003,-5.955,-5.635
0.006,-5.955,-5.635
0.008,-5.955,-5.635
0.011,-5.955,-5.635
0.014,-5.955,-5.635
0.017,-5.955,-5.635
0.019,-5.935,-5.635
0.022,-5.935,-5.605
0.025,-5.950,-5.620
0.028,-5.960,-5.635
0.031,-5.970,-5.670
0.033,-5.995,-5.710
0.036,-6.005,-5.755
0.039,-6.040,-5.770
0.042,-6.090,-5.785
0.044,-6.130,-5.760
0.047,-6.160,-5.745
0.050,-6.185,-5.735
0.053,-6.215,-5.735
0.056,-6.205,-5.735
0.058,-6.185,-5.770
0.061,-6.190,-5.795
0.064,-6.180,-5.800
0.067,-6.170,-5.810
0.069,-6.180,-5.825
0.072,-6.180,-5.805
0.075,-6.185,-5.805
0.078,-6.185,-5.795
0.081,-6.185,-5.760
0.083,-6.200,-5.760
0.086,-6.200,-5.765
0.089,-6.235,-5.750
0.092,-6.235,-5.750
0.094,-6.215,-5.760
0.097,-6.190,-5.760
0.100,-6.175,-5.785
0.103,-6.175,-5.795
0.106,-6.195,-5.810
0.108,-6.220,-5.800
0.111,-6.220,-5.810
0.114,-6.235,-5.800
0.117,-6.230,-5.805
0.119,-6.230,-5.815
0.122,-6.225,-5.820
0.125,-6.225,-5.825
0.128,-6.230,-5.815
0.131,-6.220,-5.800
0.133,-6.225,-5.805
0.136,-6.210,-5.770
0.139,-6.210,-5.775
0.142,-6.200,-5.780
0.144,-6.185,-5.820
0.147,-6.200,-5.840
0.150,-6.170,-5.885
0.153,-6.155,-5.965
0.156,-6.115,-6.050
0.158,-6.020,-6.155
0.161,-5.875,-6.295
0.164,-5.690,-6.450
0.167,-5.515,-6.605
0.169,-5.395,-6.730
0.172,-5.355,-6.790
0.175,-5.360,-6.730
0.178,-5.350,-6.620
0.181,-5.320,-6.445
0.183,-5.250,-6.295
0.186,-5.135,-6.160
0.189,-5.010,-6.030
0.192,-4.895,-5.875
0.194,-4.875,-5.630
0.197,-4.965,-5.315
0.200,-5.260,-5.010
0.203,-5.695,-4.780
0.206,-6.200,-4.715
0.208,-6.620,-4.820
0.211,-6.910,-5.050
0.214,-7.040,-5.330
0.217,-7.100,-5.565
0.219,-7.130,-5.730
0.222,-7.170,-5.815
0.225,-7.240,-5.860
0.228,-7.290,-5.895
0.231,-7.290,-5.920
0.233,-7.260,-5.975
0.236,-7.195,-6.045
0.239,-7.180,-6.105
0.242,-7.165,-6.125
0.244,-7.145,-6.130
0.247,-7.105,-6.090
0.250,-7.070,-6.070
0.253,-7.020,-6.085
0.256,-6.920,-6.070
0.258,-6.805,-6.080
0.261,-6.690,-6.050
0.264,-6.565,-6.040
0.267,-6.455,-5.995
0.269,-6.350,-5.960
0.272,-6.295,-5.880
0.275,-6.260,-5.820
0.278,-6.270,-5.765
0.281,-6.290,-5.720
0.283,-6.290,-5.685
0.286,-6.260,-5.685
0.289,-6.215,-5.705
0.292,-6.180,-5.725
0.294,-6.220,-5.740
0.297,-6.300,-5.730
0.300,-6.350,-5.715
0.303,-6.330,-5.705
0.306,-6.215,-5.720
0.308,-6.105,-5.755
0.311,-6.080,-5.790
0.314,-6.115,-5.830
0.317,-6.155,-5.825
0.319,-6.190,-5.840
0.322,-6.200,-5.825
0.325,-6.160,-5.840
0.328,-6.135,-5.875
0.331,-6.115,-5.895
0.333,-6.130,-5.905
0.336,-6.165,-5.920
0.339,-6.205,-5.905
0.342,-6.235,-5.890
0.344,-6.225,-5.895
0.347,-6.225,-5.905
0.350,-6.245,-5.950
0.353,-6.260,-6.005
0.356,-6.295,-6.055
0.358,-6.305,-6.090
0.361,-6.295,-6.115
0.364,-6.305,-6.110
0.367,-6.325,-6.110
0.369,-6.320,-6.095
0.372,-6.325,-6.085
0.375,-6.320,-6.080
0.378,-6.285,-6.080
0.381,-6.250,-6.090
0.383,-6.255,-6.105
0.386,-6.270,-6.120
0.389,-6.330,-6.170
0.392,-6.345,-6.160
0.394,-6.325,-6.180
0.397,-6.335,-6.175
0.400,-6.350,-6.165
0.403,-6.385,-6.185
0.406,-6.380,-6.175
0.408,-6.330,-6.170
0.411,-6.270,-6.175
0.414,-6.270,-6.200
0.417,-6.295,-6.245
0.419,-6.325,-6.265
0.422,-6.370,-6.285
0.425,-6.440,-6.280
0.428,-6.515,-6.270
0.431,-6.590,-6.260
0.433,-6.615,-6.270
0.436,-6.605,-6.280
0.439,-6.550,-6.240
0.442,-6.495,-6.215
0.444,-6.455,-6.195
0.447,-6.395,-6.150
0.450,-6.330,-6.105
0.453,-6.275,-6.095
0.456,-6.280,-6.085
0.458,-6.335,-6.080
0.461,-6.390,-6.095
0.464,-6.420,-6.095
0.467,-6.410,-6.100
0.469,-6.380,-6.100
0.472,-6.335,-6.095
0.475,-6.290,-6.085
0.478,-6.255,-6.075
0.481,-6.210,-6.055
0.483,-6.185,-6.050
0.486,-6.160,-6.045
0.489,-6.155,-6.050
0.492,-6.145,-6.045
0.494,-6.175,-6.020
0.497,-6.190,-6.005
0.500,-6.190,-5.980
0.503,-6.160,-5.965
0.506,-6.110,-5.945
0.508,-6.080,-5.930
0.511,-6.040,-5.940
0.514,-6.005,-5.950
0.517,-5.995,-5.950
0.519,-6.010,-5.950
0.522,-6.010,-5.950
0.525,-6.035,-5.940
0.528,-6.085,-5.910
0.531,-6.125,-5.885
0.533,-6.155,-5.845
0.536,-6.160,-5.840
0.539,-6.095,-5.820
0.542,-6.025,-5.810
0.544,-6.005,-5.810
0.547,-5.970,-5.820
0.550,-5.975,-5.820
0.553,-6.025,-5.825
0.556,-6.040,-5.825
0.558,-6.075,-5.815
0.561,-6.100,-5.800
0.564,-6.075,-5.790
0.567,-6.060,-5.790
0.569,-6.055,-5.780
0.572,-6.070,-5.775
0.575,-6.080,-5.755
0.578,-6.040,-5.755
0.581,-6.035,-5.745
0.583,-6.020,-5.785
0.586,-6.050,-5.795
0.589,-6.065,-5.795
0.592,-6.065,-5.780
0.594,-6.045,-5.785
0.597,-6.035,-5.770
0.600,-6.090,-5.785
0.603,-6.155,-5.815
0.606,-6.180,-5.805
0.608,-6.170,-5.800
0.611,-6.125,-5.815
0.614,-6.060,-5.820
0.617,-6.045,-5.805
0.619,-6.040,-5.800
0.622,-6.045,-5.790
0.625,-6.050,-5.790
0.628,-6.045,-5.780
0.631,-6.050,-5.790
0.633,-6.055,-5.795
0.636,-6.045,-5.805
0.639,-6.060,-5.795
0.642,-6.105,-5.760
0.644,-6.160,-5.735
0.647,-6.195,-5.735
0.650,-6.160,-5.730
0.653,-6.095,-5.765
0.656,-6.055,-5.800
0.658,-6.025,-5.865
0.661,-6.020,-5.870
0.664,-6.080,-5.885
0.667,-6.140,-5.865
0.669,-6.190,-5.830
0.672,-6.180,-5.800
0.675,-6.140,-5.795
0.678,-6.075,-5.780
0.681,-6.010,-5.810
0.683,-5.970,-5.830
0.686,-5.990,-5.850
0.689,-6.035,-5.850
0.692,-6.095,-5.850
0.694,-6.160,-5.825
0.697,-6.165,-5.805
0.700,-6.145,-5.800
0.703,-6.095,-5.790
0.706,-6.055,-5.825
0.708,-6.025,-5.840
0.711,-6.045,-5.840
0.714,-6.060,-5.850
0.717,-6.070,-5.825
0.719,-6.075,-5.825
0.722,-6.100,-5.810
0.725,-6.095,-5.815
0.728,-6.095,-5.840
0.731,-6.105,-5.860
0.733,-6.110,-5.860
0.736,-6.085,-5.875
0.739,-6.070,-5.880
0.742,-6.050,-5.850
0.744,-6.010,-5.840
0.747,-5.985,-5.825
0.750,-6.000,-5.850
0.753,-5.995,-5.870
0.756,-6.045,-5.865
0.758,-6.080,-5.855
0.761,-6.090,-5.845
0.764,-6.100,-5.850
0.767,-6.060,-5.855
0.769,-6.020,-5.865
0.772,-6.030,-5.865
0.775,-6.040,-5.870
0.778,-6.065,-5.865
0.781,-6.035,-5.855
0.783,-5.980,-5.855
0.786,-5.940,-5.855
0.789,-5.955,-5.855
0.792,-5.990,-5.875
0.794,-5.995,-5.880
0.797,-5.975,-5.870
0.800,-5.940,-5.870
0.803,-5.880,-5.905
0.806,-5.850,-5.945
0.808,-5.820,-5.985
0.811,-5.810,-5.985
0.814,-5.820,-5.985
0.817,-5.865,-5.920
0.819,-5.900,-5.860
0.822,-5.950,-5.815
0.825,-5.950,-5.810
0.828,-5.955,-5.805
0.831,-5.940,-5.835
0.833,-5.935,-5.890
0.836,-5.960,-5.930
0.839,-5.970,-5.940
0.842,-5.995,-5.880
0.844,-5.920,-5.815
0.847,-5.845,-5.745
0.850,-5.795,-5.710
0.853,-5.770,-5.710
0.856,-5.790,-5.725
0.858,-5.860,-5.725
0.861,-5.935,-5.750
0.864,-6.020,-5.765
0.867,-6.050,-5.800
0.869,-6.030,-5.830
0.872,-6.000,-5.865
0.875,-5.960,-5.895
0.878,-5.975,-5.925
0.881,-5.990,-5.935
0.883,-6.020,-5.895
0.886,-6.070,-5.885
0.889,-6.130,-5.870
0.892,-6.170,-5.870
0.894,-6.195,-5.885
0.897,-6.205,-5.905
0.900,-6.215,-5.920
0.903,-6.190,-5.915
0.906,-6.165,-5.895
0.908,-6.120,-5.885
0.911,-6.070,-5.865
0.914,-6.050,-5.870
0.917,-6.050,-5.885
0.919,-6.075,-5.885
0.922,-6.100,-5.885
0.925,-6.130,-5.875
0.928,-6.140,-5.865
0.931,-6.115,-5.855
0.933,-6.130,-5.845
0.936,-6.120,-5.840
0.939,-6.125,-5.830
0.942,-6.130,-5.820
0.944,-6.105,-5.825
0.947,-6.085,-5.805
0.950,-6.075,-5.810
0.953,-6.030,-5.835
0.956,-6.000,-5.865
0.958,-5.985,-5.895
0.961,-6.015,-5.885
0.964,-6.090,-5.885
0.967,-6.170,-5.830
0.969,-6.180,-5.805
0.972,-6.115,-5.805
0.975,-6.030,-5.850
0.978,-5.970,-5.920
0.981,-5.970,-5.980
0.983,-6.025,-6.020
0.986,-6.070,-6.075
0.989,-6.130,-6.120
0.992,-6.115,-6.190
0.994,-6.030,-6.290
0.997,-5.905,-6.455
1.000,-5.765,-6.620
1.003,-5.610,-6.795
1.006,-5.530,-6.925
1.008,-5.490,-6.935
1.011,-5.490,-6.870
1.014,-5.490,-6.700
1.017,-5.445,-6.490
1.019,-5.305,-6.245
1.022,-5.085,-6.040
1.025,-4.840,-5.790
1.028,-4.695,-5.530
1.031,-4.710,-5.235
1.033,-4.910,-4.915
1.036,-5.290,-4.680
1.039,-5.755,-4.535
1.042,-6.175,-4.530
1.044,-6.455,-4.700
1.047,-6.635,-4.940
1.050,-6.740,-5.165
1.053,-6.820,-5.350
1.056,-6.940,-5.485
1.058,-7.070,-5.515
1.061,-7.150,-5.580
1.064,-7.230,-5.640
1.067,-7.265,-5.685
1.069,-7.270,-5.750
1.072,-7.255,-5.795
1.075,-7.220,-5.800
1.078,-7.215,-5.795
1.081,-7.215,-5.770
1.083,-7.200,-5.745
1.086,-7.180,-5.765
1.089,-7.130,-5.815
1.092,-7.055,-5.855
1.094,-6.995,-5.890
1.097,-6.965,-5.925
1.100,-6.925,-5.940
1.103,-6.825,-5.920
1.106,-6.705,-5.865
1.108,-6.565,-5.780
1.111,-6.425,-5.740
1.114,-6.325,-5.720
1.117,-6.265,-5.725
1.119,-6.235,-5.740
1.122,-6.225,-5.745
1.125,-6.235,-5.725
1.128,-6.260,-5.740
1.131,-6.290,-5.725
1.133,-6.280,-5.720
1.136,-6.225,-5.690
1.139,-6.150,-5.670
1.142,-6.090,-5.670
1.144,-6.090,-5.675
1.147,-6.115,-5.685
1.150,-6.160,-5.665
1.153,-6.200,-5.680
1.156,-6.220,-5.695
1.158,-6.210,-5.725
1.161,-6.190,-5.745
1.164,-6.170,-5.780
1.167,-6.145,-5.795
1.169,-6.125,-5.795
1.172,-6.110,-5.800
1.175,-6.130,-5.785
1.178,-6.140,-5.775
1.181,-6.180,-5.775
1.183,-6.185,-5.775
1.186,-6.190,-5.775
1.189,-6.185,-5.800
1.192,-6.165,-5.825
1.194,-6.170,-5.855
1.197,-6.195,-5.885
1.200,-6.225,-5.895
1.203,-6.250,-5.895
1.206,-6.270,-5.895
1.208,-6.290,-5.880
1.211,-6.305,-5.900
1.214,-6.325,-5.920
1.217,-6.305,-5.910
1.219,-6.290,-5.940
1.222,-6.275,-5.965
1.225,-6.275,-5.990
1.228,-6.280,-6.020
1.231,-6.280,-6.020
1.233,-6.290,-6.020
1.236,-6.310,-6.005
1.239,-6.365,-6.005
1.242,-6.415,-6.015
1.244,-6.430,-6.005
1.247,-6.410,-6.025
1.250,-6.360,-6.030
1.253,-6.305,-6.055
1.256,-6.280,-6.100
1.258,-6.285,-6.130
1.261,-6.360,-6.135
1.264,-6.440,-6.115
1.267,-6.495,-6.100
1.269,-6.475,-6.080
1.272,-6.385,-6.095
1.275,-6.320,-6.110
1.278,-6.285,-6.160
1.281,-6.295,-6.180
1.283,-6.340,-6.170
1.286,-6.385,-6.125
1.289,-6.400,-6.110
1.292,-6.410,-6.110
1.294,-6.380,-6.120
1.297,-6.325,-6.160
1.300,-6.335,-6.180
1.303,-6.325,-6.185
1.306,-6.325,-6.140
1.308,-6.305,-6.070
1.311,-6.305,-6.025
1.314,-6.285,-5.990
1.317,-6.245,-5.980
1.319,-6.195,-6.000
1.322,-6.130,-6.045
1.325,-6.090,-6.055
1.328,-6.100,-6.065
1.331,-6.120,-6.060
1.333,-6.160,-6.025
1.336,-6.165,-5.995
1.339,-6.130,-5.965
1.342,-6.095,-5.940
1.344,-6.090,-5.930
1.347,-6.065,-5.890
1.350,-6.070,-5.865
1.353,-6.065,-5.835
1.356,-6.030,-5.825
1.358,-6.010,-5.805
1.361,-6.005,-5.815
1.364,-6.040,-5.840
1.367,-6.055,-5.855
1.369,-6.020,-5.855
1.372,-5.980,-5.850
1.375,-5.950,-5.840
1.378,-5.950,-5.810
1.381,-5.975,-5.805
1.383,-6.020,-5.765
1.386,-6.055,-5.765
1.389,-6.060,-5.760
1.392,-6.065,-5.770
1.394,-6.055,-5.770
1.397,-6.035,-5.770
1.400,-5.990,-5.775
1.403,-5.950,-5.770
1.406,-5.935,-5.790
1.408,-5.945,-5.785
1.411,-5.970,-5.775
1.414,-5.985,-5.770
1.417,-5.990,-5.760
1.419,-5.990,-5.755
1.422,-5.975,-5.740
1.425,-5.960,-5.735
1.428,-5.975,-5.725
1.431,-6.025,-5.720
1.433,-6.080,-5.715
1.436,-6.095,-5.705
1.439,-6.070,-5.735
1.442,-6.020,-5.730
1.444,-5.985,-5.750
1.447,-5.995,-5.745
1.450,-6.040,-5.780
1.453,-6.050,-5.775
1.456,-6.070,-5.780
1.458,-6.055,-5.770
1.461,-6.070,-5.800
1.464,-6.110,-5.810
1.467,-6.120,-5.800
1.469,-6.105,-5.810
1.472,-6.075,-5.805
1.475,-6.040,-5.800
1.478,-6.020,-5.790
1.481,-5.995,-5.785
1.483,-5.985,-5.765
1.486,-6.000,-5.770
1.489,-6.015,-5.765
1.492,-6.015,-5.785
1.494,-6.020,-5.795
1.497,-6.050,-5.785
1.500,-6.070,-5.790
1.503,-6.100,-5.775
1.506,-6.065,-5.755
1.508,-6.015,-5.740
1.511,-5.990,-5.715
1.514,-5.990,-5.715
1.517,-6.035,-5.750
1.519,-6.065,-5.755
1.522,-6.075,-5.780
1.525,-6.060,-5.775
1.528,-6.025,-5.780
1.531,-6.025,-5.765
1.533,-6.055,-5.760
1.536,-6.080,-5.765
1.539,-6.075,-5.780
1.542,-6.060,-5.785
1.544,-6.005,-5.795
1.547,-5.995,-5.790
1.550,-5.960,-5.760
1.553,-5.965,-5.740
1.556,-5.970,-5.725
1.558,-6.000,-5.695
1.561,-6.040,-5.680
1.564,-6.045,-5.660
1.567,-6.015,-5.685
1.569,-5.975,-5.710
1.572,-5.955,-5.735
1.575,-5.975,-5.730
1.578,-5.980,-5.730
1.581,-5.980,-5.730
1.583,-5.975,-5.710
1.586,-5.985,-5.715
1.589,-6.020,-5.715
1.592,-6.025,-5.710
1.594,-6.020,-5.715
1.597,-5.990,-5.750
1.600,-5.970,-5.790
1.603,-5.950,-5.845
1.606,-5.970,-5.850
1.608,-6.015,-5.850
1.611,-6.040,-5.805
1.614,-6.065,-5.765
1.617,-6.050,-5.735
1.619,-6.030,-5.725
1.622,-5.995,-5.725
1.625,-5.985,-5.745
1.628,-5.990,-5.740
1.631,-5.975,-5.730
1.633,-5.975,-5.745
1.636,-5.980,-5.755
1.639,-5.975,-5.745
1.642,-5.955,-5.720
1.644,-5.940,-5.710
1.647,-5.910,-5.710
1.650,-5.895,-5.720
1.653,-5.875,-5.750
1.656,-5.875,-5.785
1.658,-5.855,-5.820
1.661,-5.840,-5.815
1.664,-5.840,-5.830
1.667,-5.830,-5.805
1.669,-5.830,-5.755
1.672,-5.820,-5.705
1.675,-5.825,-5.655
1.678,-5.840,-5.645
1.681,-5.870,-5.655
1.683,-5.890,-5.645
1.686,-5.925,-5.690
1.689,-5.935,-5.695
1.692,-5.905,-5.730
1.694,-5.835,-5.710
1.697,-5.790,-5.705
1.700,-5.750,-5.685
1.703,-5.775,-5.665
1.706,-5.805,-5.605
1.708,-5.840,-5.565
1.711,-5.835,-5.530
1.714,-5.820,-5.505
1.717,-5.865,-5.520
1.719,-5.940,-5.555
1.722,-6.015,-5.590
1.725,-6.045,-5.610
1.728,-6.030,-5.630
1.731,-6.005,-5.665
1.733,-5.985,-5.685
1.736,-5.955,-5.710
1.739,-5.965,-5.725
1.742,-6.000,-5.730
1.744,-6.015,-5.735
1.747,-6.025,-5.730
1.750,-6.045,-5.725
1.753,-6.055,-5.715
1.756,-6.085,-5.700
1.758,-6.095,-5.695
1.761,-6.100,-5.710
1.764,-6.105,-5.725
1.767,-6.110,-5.760
1.769,-6.085,-5.785
1.772,-6.055,-5.765
1.775,-6.025,-5.775
1.778,-6.015,-5.755
1.781,-6.045,-5.740
1.783,-6.080,-5.740
1.786,-6.110,-5.740
1.789,-6.150,-5.730
1.792,-6.145,-5.740
1.794,-6.120,-5.760
1.797,-6.095,-5.775
1.800,-6.095,-5.785
1.803,-6.115,-5.795
1.806,-6.120,-5.775
1.808,-6.095,-5.740
1.811,-6.055,-5.715
1.814,-6.060,-5.695
1.817,-6.045,-5.705
1.819,-6.075,-5.735
1.822,-6.110,-5.745
1.825,-6.130,-5.755
1.828,-6.135,-5.770
1.831,-6.125,-5.795
1.833,-6.145,-5.840
1.836,-6.155,-5.920
1.839,-6.135,-6.020
1.842,-6.035,-6.145
1.844,-5.885,-6.305
1.847,-5.730,-6.490
1.850,-5.575,-6.670
1.853,-5.470,-6.825
1.856,-5.445,-6.890
1.858,-5.475,-6.840
1.861,-5.520,-6.690
1.864,-5.490,-6.490
1.867,-5.350,-6.275
1.869,-5.125,-6.090
1.872,-4.875,-5.875
1.875,-4.700,-5.625
1.878,-4.685,-5.320
1.881,-4.860,-5.030
1.883,-5.220,-4.795
1.886,-5.655,-4.685
1.889,-6.095,-4.700
1.892,-6.455,-4.835
1.894,-6.725,-5.070
1.897,-6.890,-5.285
1.900,-6.985,-5.450
1.903,-7.020,-5.530
1.906,-7.050,-5.610
1.908,-7.065,-5.645
1.911,-7.105,-5.710
1.914,-7.165,-5.775
1.917,-7.205,-5.845
1.919,-7.240,-5.885
1.922,-7.230,-5.920
1.925,-7.205,-5.915
1.928,-7.210,-5.895
1.931,-7.205,-5.880
1.933,-7.185,-5.890
1.936,-7.140,-5.885
1.939,-7.090,-5.905
1.942,-7.025,-5.900
1.944,-6.950,-5.885
1.947,-6.875,-5.885
1.950,-6.780,-5.840
1.953,-6.650,-5.790
1.956,-6.520,-5.750
1.958,-6.405,-5.715
1.961,-6.305,-5.695
1.964,-6.240,-5.680
1.967,-6.230,-5.705
1.969,-6.235,-5.705
1.972,-6.250,-5.715
1.975,-6.270,-5.655
1.978,-6.245,-5.625
1.981,-6.225,-5.585
1.983,-6.180,-5.550
1.986,-6.135,-5.540
1.989,-6.130,-5.565
1.992,-6.110,-5.605
1.994,-6.090,-5.650
1.997,-6.100,-5.645
2.000,-6.160,-5.660
2.003,-6.245,-5.660
2.006,-6.300,-5.650
2.008,-6.320,-5.620
2.011,-6.265,-5.605
2.014,-6.205,-5.610
2.017,-6.145,-5.625
2.019,-6.115,-5.650
2.022,-6.075,-5.700
2.025,-6.075,-5.720
2.028,-6.095,-5.760
2.031,-6.125,-5.770
2.033,-6.200,-5.775
2.036,-6.270,-5.765
2.039,-6.305,-5.765
2.042,-6.295,-5.785
2.044,-6.280,-5.790
2.047,-6.265,-5.805
2.050,-6.275,-5.840
2.053,-6.275,-5.860
2.056,-6.280,-5.875
2.058,-6.280,-5.895
2.061,-6.325,-5.915
2.064,-6.360,-5.930
2.067,-6.405,-5.935
2.069,-6.425,-5.945
2.072,-6.425,-5.945
2.075,-6.415,-5.925
2.078,-6.390,-5.935
2.081,-6.360,-5.935
2.083,-6.340,-5.960
2.086,-6.320,-5.980
2.089,-6.315,-6.005
2.092,-6.345,-5.995
2.094,-6.385,-6.005
2.097,-6.405,-5.990
2.100,-6.440,-5.980
2.103,-6.460,-6.000
2.106,-6.480,-6.015
2.108,-6.480,-6.030
2.111,-6.475,-6.045
2.114,-6.425,-6.060
2.117,-6.360,-6.060
2.119,-6.330,-6.085
2.122,-6.330,-6.060
2.125,-6.320,-6.090
2.128,-6.350,-6.095
2.131,-6.385,-6.100
2.133,-6.410,-6.105
2.136,-6.435,-6.110
2.139,-6.455,-6.105
2.142,-6.440,-6.085
2.144,-6.430,-6.065
2.147,-6.395,-6.030
2.150,-6.365,-6.000
2.153,-6.320,-5.995
2.156,-6.290,-5.990
2.158,-6.285,-5.980
2.161,-6.245,-5.985
2.164,-6.245,-5.985
2.167,-6.215,-5.990
2.169,-6.185,-5.970
2.172,-6.175,-5.935
2.175,-6.155,-5.890
2.178,-6.140,-5.885
2.181,-6.135,-5.850
2.183,-6.185,-5.815
2.186,-6.250,-5.820
2.189,-6.280,-5.800
2.192,-6.190,-5.805
2.194,-6.095,-5.800
2.197,-6.005,-5.840
2.200,-5.960,-5.850
2.203,-5.965,-5.865
2.206,-5.985,-5.840
2.208,-6.040,-5.795
2.211,-6.065,-5.740
2.214,-6.070,-5.710
2.217,-6.055,-5.685
2.219,-6.055,-5.690
2.222,-6.075,-5.715
2.225,-6.090,-5.720
2.228,-6.085,-5.725
2.231,-6.070,-5.745
2.233,-6.050,-5.735
2.236,-6.055,-5.730
2.239,-6.060,-5.705
2.242,-6.085,-5.685
2.244,-6.065,-5.660
2.247,-6.085,-5.655
2.250,-6.090,-5.650
2.253,-6.095,-5.640
2.256,-6.080,-5.630
2.258,-6.110,-5.630
2.261,-6.150,-5.615
2.264,-6.200,-5.615
2.267,-6.150,-5.605
2.269,-6.070,-5.625
2.272,-5.985,-5.630
2.275,-5.935,-5.670
2.278,-5.935,-5.695
2.281,-5.955,-5.700
2.283,-6.020,-5.670
2.286,-6.080,-5.645
2.289,-6.135,-5.630
2.292,-6.160,-5.605
2.294,-6.175,-5.615
2.297,-6.140,-5.655
2.300,-6.125,-5.665
2.303,-6.115,-5.685
2.306,-6.125,-5.675
2.308,-6.140,-5.635
2.311,-6.165,-5.620
2.314,-6.155,-5.625
2.317,-6.130,-5.625
2.319,-6.070,-5.645
2.322,-6.045,-5.660
2.325,-6.035,-5.675
2.328,-6.045,-5.660
2.331,-6.070,-5.645
2.333,-6.090,-5.635
2.336,-6.135,-5.605
2.339,-6.145,-5.605
2.342,-6.115,-5.610
2.344,-6.070,-5.635
2.347,-6.025,-5.630
2.350,-6.015,-5.635
2.353,-6.045,-5.640
2.356,-6.060,-5.655
2.358,-6.075,-5.645
2.361,-6.090,-5.635
2.364,-6.095,-5.630
2.367,-6.110,-5.635
2.369,-6.125,-5.635
2.372,-6.145,-5.620
2.375,-6.165,-5.615
2.378,-6.145,-5.610
2.381,-6.110,-5.625
2.383,-6.080,-5.625
2.386,-6.065,-5.630
2.389,-6.035,-5.635
2.392,-6.035,-5.640
2.394,-6.025,-5.615
2.397,-6.030,-5.585
2.400,-6.035,-5.590
2.403,-6.060,-5.590
2.406,-6.055,-5.575
2.408,-6.055,-5.565
2.411,-6.090,-5.565
2.414,-6.105,-5.595
2.417,-6.105,-5.595
2.419,-6.070,-5.620
2.422,-6.020,-5.625
2.425,-5.955,-5.635
2.428,-5.900,-5.625
2.431,-5.895,-5.640
2.433,-5.915,-5.625
2.436,-5.970,-5.630
2.439,-6.030,-5.605
2.442,-6.075,-5.570
2.444,-6.085,-5.580
2.447,-6.065,-5.555
2.450,-6.055,-5.560
2.453,-6.030,-5.565
2.456,-6.035,-5.585
2.458,-6.045,-5.590
2.461,-6.070,-5.590
2.464,-6.075,-5.575
2.467,-6.065,-5.570
2.469,-6.055,-5.575
2.472,-6.020,-5.575
2.475,-6.020,-5.575
2.478,-5.975,-5.575
2.481,-5.955,-5.575
2.483,-5.970,-5.575
2.486,-5.990,-5.590
2.489,-5.985,-5.575
2.492,-5.970,-5.590
2.494,-5.920,-5.615
2.497,-5.915,-5.645
2.500,-5.910,-5.650
2.503,-5.885,-5.655
2.506,-5.865,-5.670
2.508,-5.865,-5.655
2.511,-5.865,-5.620
2.514,-5.880,-5.605
2.517,-5.880,-5.595
2.519,-5.850,-5.560
2.522,-5.835,-5.565
2.525,-5.835,-5.540
2.528,-5.860,-5.535
2.531,-5.880,-5.530
2.533,-5.925,-5.545
2.536,-5.960,-5.560
2.539,-5.995,-5.570
2.542,-5.975,-5.560
2.544,-5.940,-5.560
2.547,-5.870,-5.540
2.550,-5.820,-5.515
2.553,-5.780,-5.495
2.556,-5.745,-5.470
2.558,-5.760,-5.450
2.561,-5.815,-5.445
2.564,-5.895,-5.425
2.567,-6.030,-5.415
2.569,-6.080,-5.445
2.572,-6.080,-5.460
2.575,-6.050,-5.520
2.578,-6.015,-5.560
2.581,-5.975,-5.575
2.583,-5.980,-5.575
2.586,-5.990,-5.570
2.589,-6.015,-5.545
2.592,-6.010,-5.530
2.594,-6.035,-5.535
2.597,-6.085,-5.520
2.600,-6.150,-5.540
2.603,-6.205,-5.545
2.606,-6.190,-5.560
2.608,-6.170,-5.555
2.611,-6.150,-5.560
2.614,-6.125,-5.575
2.617,-6.100,-5.555
2.619,-6.085,-5.550
2.622,-6.075,-5.545
2.625,-6.070,-5.540
2.628,-6.060,-5.570
2.631,-6.040,-5.570
2.633,-5.990,-5.595
2.636,-5.965,-5.600
2.639,-5.980,-5.590
2.642,-5.990,-5.565
2.644,-6.015,-5.555
2.647,-6.020,-5.540
2.650,-6.025,-5.550
2.653,-6.020,-5.565
2.656,-6.060,-5.620
2.658,-6.055,-5.645
2.661,-6.045,-5.670
2.664,-6.055,-5.685
2.667,-6.055,-5.685
2.669,-6.095,-5.660
2.672,-6.135,-5.650
2.675,-6.150,-5.640
2.678,-6.170,-5.685
2.681,-6.170,-5.720
2.683,-6.135,-5.805
2.686,-6.060,-5.900
2.689,-5.960,-6.005
2.692,-5.845,-6.120
2.694,-5.715,-6.240
2.697,-5.580,-6.335
2.700,-5.440,-6.440
2.703,-5.340,-6.480
2.706,-5.305,-6.460
2.708,-5.310,-6.370
2.711,-5.335,-6.250
2.714,-5.310,-6.110
2.717,-5.260,-5.955
2.719,-5.110,-5.825
2.722,-4.945,-5.645
2.725,-4.830,-5.400
2.728,-4.825,-5.080
2.731,-4.985,-4.750
2.733,-5.295,-4.495
2.736,-5.725,-4.380
2.739,-6.155,-4.410
2.742,-6.535,-4.600
2.744,-6.790,-4.865
2.747,-6.965,-5.150
2.750,-7.060,-5.355
2.753,-7.105,-5.495
2.756,-7.135,-5.555
2.758,-7.140,-5.600
2.761,-7.130,-5.640
2.764,-7.140,-5.675
2.767,-7.170,-5.710
2.769,-7.210,-5.750
2.772,-7.235,-5.760
2.775,-7.255,-5.755
2.778,-7.265,-5.735
2.781,-7.270,-5.705
2.783,-7.250,-5.700
2.786,-7.215,-5.700
2.789,-7.110,-5.720
2.792,-6.995,-5.770
2.794,-6.880,-5.780
2.797,-6.740,-5.785
2.800,-6.585,-5.765
2.803,-6.475,-5.700
2.806,-6.355,-5.615
2.808,-6.295,-5.550
2.811,-6.255,-5.485
2.814,-6.260,-5.450
2.817,-6.245,-5.455
2.819,-6.235,-5.470
2.822,-6.210,-5.515
2.825,-6.175,-5.555
2.828,-6.160,-5.565
2.831,-6.145,-5.540
2.833,-6.190,-5.490
2.836,-6.245,-5.420
2.839,-6.280,-5.385
2.842,-6.240,-5.380
2.844,-6.190,-5.405
2.847,-6.150,-5.460
2.850,-6.150,-5.515
2.853,-6.145,-5.555
2.856,-6.170,-5.570
2.858,-6.195,-5.580
2.861,-6.215,-5.580
2.864,-6.230,-5.590
2.867,-6.245,-5.580
2.869,-6.235,-5.600
2.872,-6.240,-5.590
2.875,-6.235,-5.605
2.878,-6.245,-5.585
2.881,-6.260,-5.620
2.883,-6.260,-5.645
2.886,-6.260,-5.675
2.889,-6.270,-5.715
2.892,-6.285,-5.725
2.894,-6.305,-5.765
2.897,-6.310,-5.755
2.900,-6.330,-5.755
2.903,-6.330,-5.750
2.906,-6.345,-5.725
2.908,-6.340,-5.730
2.911,-6.350,-5.750
2.914,-6.365,-5.765
2.917,-6.370,-5.790
2.919,-6.385,-5.825
2.922,-6.405,-5.875
2.925,-6.415,-5.885
2.928,-6.420,-5.900
2.931,-6.440,-5.900
2.933,-6.440,-5.905
2.936,-6.435,-5.910
2.939,-6.415,-5.885
2.942,-6.415,-5.890
2.944,-6.435,-5.895
2.947,-6.465,-5.920
2.950,-6.485,-5.915
2.953,-6.510,-5.925
2.956,-6.485,-5.945
2.958,-6.450,-5.950
2.961,-6.430,-5.965
2.964,-6.425,-5.980
2.967,-6.420,-5.995
2.969,-6.430,-5.995
2.972,-6.435,-5.980
2.975,-6.430,-5.960
2.978,-6.435,-5.950
2.981,-6.420,-5.935
2.983,-6.400,-5.920
2.986,-6.370,-5.920
2.989,-6.350,-5.895
2.992,-6.335,-5.885
2.994,-6.315,-5.880
2.997,-6.325,-5.875
3.000,-6.320,-5.875
3.003,-6.310,-5.865
3.006,-6.290,-5.855
3.008,-6.265,-5.840
3.011,-6.230,-5.805
3.014,-6.210,-5.800
3.017,-6.195,-5.780
3.019,-6.165,-5.760
3.022,-6.135,-5.740
3.025,-6.120,-5.720
3.028,-6.120,-5.700
3.031,-6.140,-5.660
3.033,-6.165,-5.630
3.036,-6.165,-5.605
3.039,-6.130,-5.615
3.042,-6.110,-5.595
3.044,-6.085,-5.580
3.047,-6.070,-5.565
3.050,-6.065,-5.570
3.053,-6.065,-5.575
3.056,-6.060,-5.580
3.058,-6.065,-5.590
3.061,-6.065,-5.600
3.064,-6.090,-5.595
3.067,-6.080,-5.585
3.069,-6.070,-5.540
3.072,-6.075,-5.500
3.075,-6.065,-5.490
3.078,-6.070,-5.475
3.081,-6.095,-5.460
3.083,-6.090,-5.490
3.086,-6.080,-5.490
3.089,-6.090,-5.505
3.092,-6.095,-5.520
3.094,-6.085,-5.530
3.097,-6.100,-5.540
3.100,-6.085,-5.540
3.103,-6.095,-5.545
3.106,-6.090,-5.545
3.108,-6.085,-5.555
3.111,-6.090,-5.555
3.114,-6.110,-5.540
3.117,-6.120,-5.560
3.119,-6.135,-5.560
3.122,-6.125,-5.590
3.125,-6.135,-5.600
3.128,-6.140,-5.585
3.131,-6.145,-5.575
3.133,-6.135,-5.540
3.136,-6.125,-5.535
3.139,-6.120,-5.505
3.142,-6.115,-5.505
3.144,-6.110,-5.520
3.147,-6.105,-5.505
3.150,-6.095,-5.520
3.153,-6.095,-5.510
3.156,-6.120,-5.545
3.158,-6.135,-5.555
3.161,-6.110,-5.575
3.164,-6.100,-5.570
3.167,-6.080,-5.585
3.169,-6.090,-5.560
3.172,-6.125,-5.550
3.175,-6.140,-5.560
3.178,-6.150,-5.555
3.181,-6.170,-5.570
3.183,-6.160,-5.585
3.186,-6.145,-5.590
3.189,-6.165,-5.595
3.192,-6.165,-5.590
3.194,-6.165,-5.590
3.197,-6.170,-5.590
3.200,-6.155,-5.585
3.203,-6.175,-5.595
3.206,-6.165,-5.570
3.208,-6.160,-5.575
3.211,-6.155,-5.555
3.214,-6.135,-5.545
3.217,-6.145,-5.560
3.219,-6.130,-5.550
3.222,-6.140,-5.545
3.225,-6.130,-5.560
3.228,-6.140,-5.580
3.231,-6.115,-5.595
3.233,-6.115,-5.590
3.236,-6.110,-5.590
3.239,-6.105,-5.555
3.242,-6.120,-5.575
3.244,-6.150,-5.550
3.247,-6.155,-5.545
3.250,-6.165,-5.555
3.253,-6.185,-5.590
3.256,-6.200,-5.600
3.258,-6.210,-5.605
3.261,-6.215,-5.625
3.264,-6.200,-5.635
3.267,-6.175,-5.640
3.269,-6.165,-5.620
3.272,-6.160,-5.595
3.275,-6.170,-5.585
3.278,-6.160,-5.575
3.281,-6.170,-5.590
3.283,-6.175,-5.600
3.286,-6.155,-5.615
3.289,-6.145,-5.620
3.292,-6.140,-5.620
3.294,-6.115,-5.635
3.297,-6.105,-5.610
3.300,-6.080,-5.590
3.303,-6.070,-5.550
3.306,-6.070,-5.520
3.308,-6.080,-5.525
3.311,-6.070,-5.530
3.314,-6.085,-5.530
3.317,-6.105,-5.545
3.319,-6.100,-5.565
3.322,-6.085,-5.585
3.325,-6.065,-5.620
3.328,-6.080,-5.625
3.331,-6.075,-5.635
3.333,-6.070,-5.645
3.336,-6.080,-5.640
3.339,-6.070,-5.635
3.342,-6.055,-5.635
3.344,-6.030,-5.620
3.347,-5.980,-5.630
3.350,-5.945,-5.620
3.353,-5.920,-5.620
3.356,-5.915,-5.600
3.358,-5.905,-5.555
3.361,-5.930,-5.515
3.364,-5.955,-5.485
3.367,-5.975,-5.490
3.369,-6.005,-5.475
3.372,-6.015,-5.525
3.375,-6.025,-5.540
3.378,-6.020,-5.580
3.381,-5.995,-5.580
3.383,-5.960,-5.570
3.386,-5.925,-5.520
3.389,-5.925,-5.465
3.392,-5.910,-5.455
3.394,-5.925,-5.410
3.397,-5.930,-5.390
3.400,-5.960,-5.380
3.403,-5.975,-5.390
3.406,-5.990,-5.415
3.408,-6.015,-5.440
3.411,-6.035,-5.475
3.414,-6.055,-5.480
3.417,-6.070,-5.505
3.419,-6.080,-5.505
3.422,-6.090,-5.525
3.425,-6.085,-5.525
3.428,-6.095,-5.535
3.431,-6.085,-5.540
3.433,-6.090,-5.570
3.436,-6.095,-5.550
3.439,-6.105,-5.565
3.442,-6.115,-5.560
3.444,-6.130,-5.560
3.447,-6.120,-5.550
3.450,-6.115,-5.575
3.453,-6.125,-5.570
3.456,-6.145,-5.565
3.458,-6.165,-5.580
3.461,-6.175,-5.545
3.464,-6.185,-5.570
3.467,-6.185,-5.595
3.469,-6.195,-5.595
3.472,-6.195,-5.610
3.475,-6.180,-5.595
3.478,-6.180,-5.585
3.481,-6.180,-5.575
3.483,-6.170,-5.625
3.486,-6.165,-5.615
3.489,-6.180,-5.650
3.492,-6.185,-5.660
3.494,-6.225,-5.655
3.497,-6.245,-5.665
3.500,-6.285,-5.675
3.503,-6.295,-5.670
3.506,-6.285,-5.675
3.508,-6.250,-5.685
3.511,-6.215,-5.685
3.514,-6.210,-5.670
3.517,-6.195,-5.655
3.519,-6.200,-5.665
3.522,-6.175,-5.710
3.525,-6.180,-5.765
3.528,-6.120,-5.860
3.531,-6.030,-5.960
3.533,-5.925,-6.090
3.536,-5.780,-6.220
3.539,-5.635,-6.325
3.542,-5.480,-6.435
3.544,-5.360,-6.495
3.547,-5.305,-6.535
3.550,-5.310,-6.475
3.553,-5.325,-6.370
3.556,-5.320,-6.230
3.558,-5.280,-6.090
3.561,-5.185,-5.910
3.564,-5.050,-5.755
3.567,-4.915,-5.575
3.569,-4.840,-5.340
3.572,-4.845,-5.035
3.575,-4.980,-4.750
3.578,-5.240,-4.505
3.581,-5.615,-4.390
3.583,-6.025,-4.430
3.586,-6.400,-4.605
3.589,-6.695,-4.880
3.592,-6.885,-5.160
3.594,-6.985,-5.390
3.597,-7.025,-5.515
3.600,-7.060,-5.580
3.603,-7.090,-5.610
3.606,-7.120,-5.660
3.608,-7.150,-5.700
3.611,-7.165,-5.750
3.614,-7.170,-5.780
3.617,-7.180,-5.790
3.619,-7.205,-5.785
3.622,-7.205,-5.795
3.625,-7.215,-5.760
3.628,-7.195,-5.745
3.631,-7.165,-5.750
3.633,-7.145,-5.765
3.636,-7.095,-5.795
3.639,-7.015,-5.790
3.642,-6.905,-5.795
3.644,-6.770,-5.780
3.647,-6.625,-5.745
3.650,-6.475,-5.705
3.653,-6.365,-5.625
3.656,-6.270,-5.580
3.658,-6.205,-5.535
3.661,-6.185,-5.505
3.664,-6.210,-5.490
3.667,-6.200,-5.515
3.669,-6.215,-5.505
3.672,-6.210,-5.505
3.675,-6.175,-5.510
3.678,-6.145,-5.485
3.681,-6.125,-5.465
3.683,-6.110,-5.470
3.686,-6.100,-5.470
3.689,-6.100,-5.490
3.692,-6.115,-5.500
3.694,-6.130,-5.510
3.697,-6.150,-5.520
3.700,-6.150,-5.520
3.703,-6.160,-5.520
3.706,-6.160,-5.505
3.708,-6.150,-5.515
3.711,-6.145,-5.510
3.714,-6.135,-5.520
3.717,-6.150,-5.535
3.719,-6.160,-5.555
3.722,-6.185,-5.585
3.725,-6.195,-5.610
3.728,-6.220,-5.615
3.731,-6.225,-5.630
3.733,-6.215,-5.655
3.736,-6.220,-5.650
3.739,-6.235,-5.670
3.742,-6.235,-5.680
3.744,-6.245,-5.685
3.747,-6.250,-5.710
3.750,-6.230,-5.710
3.753,-6.250,-5.725
3.756,-6.275,-5.750
3.758,-6.290,-5.785
3.761,-6.325,-5.795
3.764,-6.335,-5.805
3.767,-6.350,-5.835
3.769,-6.360,-5.850
3.772,-6.360,-5.860
3.775,-6.355,-5.860
3.778,-6.365,-5.860
3.781,-6.355,-5.865
3.783,-6.370,-5.855
3.786,-6.380,-5.870
3.789,-6.370,-5.895
3.792,-6.390,-5.925
3.794,-6.390,-5.935
3.797,-6.410,-5.945
3.800,-6.425,-5.975
3.803,-6.430,-5.965
3.806,-6.445,-5.965
3.808,-6.440,-5.970
3.811,-6.430,-5.970
3.814,-6.420,-5.965
3.817,-6.405,-5.975
3.819,-6.390,-5.985
3.822,-6.395,-5.980
3.825,-6.390,-6.000
3.828,-6.385,-5.985
3.831,-6.390,-5.990
3.833,-6.370,-5.985
3.836,-6.395,-5.980
3.839,-6.355,-5.975
3.842,-6.335,-5.970
3.844,-6.305,-5.945
3.847,-6.280,-5.930
3.850,-6.275,-5.910
3.853,-6.255,-5.895
3.856,-6.250,-5.890
3.858,-6.250,-5.885
3.861,-6.240,-5.870
3.864,-6.215,-5.865
3.867,-6.200,-5.860
3.869,-6.190,-5.830
3.872,-6.175,-5.790
3.875,-6.150,-5.770
3.878,-6.135,-5.745
3.881,-6.110,-5.720
3.883,-6.110,-5.710
3.886,-6.095,-5.735
3.889,-6.070,-5.740
3.892,-6.065,-5.745
3.894,-6.065,-5.725
3.897,-6.060,-5.735
3.900,-6.055,-5.705
3.903,-6.050,-5.680
3.906,-6.045,-5.660
3.908,-6.020,-5.640
3.911,-6.020,-5.640
3.914,-5.995,-5.630
3.917,-5.990,-5.605
3.919,-5.995,-5.610
3.922,-5.990,-5.615
3.925,-5.985,-5.620
3.928,-6.000,-5.615
3.931,-6.005,-5.625
3.933,-6.015,-5.620
3.936,-6.010,-5.615
3.939,-6.010,-5.615
3.942,-6.010,-5.595
3.944,-6.000,-5.590
3.947,-6.000,-5.565
3.950,-5.975,-5.570
3.953,-5.985,-5.575
3.956,-5.975,-5.565
3.958,-6.000,-5.590
3.961,-6.005,-5.590
3.964,-6.000,-5.615
3.967,-6.005,-5.615
3.969,-6.010,-5.620
3.972,-6.005,-5.600
3.975,-6.020,-5.585
3.978,-6.000,-5.575
3.981,-5.990,-5.560
3.983,-5.990,-5.565
3.986,-6.005,-5.565
3.989,-5.995,-5.565
3.992,-6.005,-5.570
3.994,-6.020,-5.575
3.997,-6.025,-5.590
4.000,-6.010,-5.610
4.003,-6.020,-5.600
4.006,-6.025,-5.600
4.008,-6.015,-5.570
4.011,-6.010,-5.560
4.014,-6.010,-5.555
4.017,-5.990,-5.540
4.019,-5.990,-5.550
4.022,-6.010,-5.555
4.025,-6.005,-5.585
4.028,-6.040,-5.600
4.031,-6.030,-5.605
4.033,-6.035,-5.595
4.036,-6.025,-5.605
4.039,-6.040,-5.600
4.042,-6.000,-5.595
4.044,-6.005,-5.585
4.047,-5.980,-5.580
4.050,-5.985,-5.575
4.053,-6.000,-5.575
4.056,-5.990,-5.600
4.058,-5.995,-5.615
4.061,-6.005,-5.615
4.064,-6.010,-5.630
4.067,-6.015,-5.630
4.069,-6.015,-5.620
4.072,-6.010,-5.620
4.075,-6.000,-5.595
4.078,-5.985,-5.595
4.081,-5.975,-5.575
4.083,-5.975,-5.595
4.086,-5.990,-5.605
4.089,-6.005,-5.600
4.092,-6.005,-5.620
4.094,-6.000,-5.620
4.097,-6.000,-5.645
4.100,-6.010,-5.635
4.103,-6.010,-5.630
4.106,-5.995,-5.620
4.108,-5.990,-5.620
4.111,-5.995,-5.605
4.114,-5.970,-5.595
4.117,-5.970,-5.605
4.119,-5.975,-5.600
4.122,-5.970,-5.620
4.125,-5.980,-5.620
4.128,-5.980,-5.625
4.131,-5.990,-5.635
4.133,-5.985,-5.625
4.136,-6.010,-5.655
4.139,-5.995,-5.635
4.142,-5.975,-5.640
4.144,-5.955,-5.600
4.147,-5.955,-5.605
4.150,-5.945,-5.590
4.153,-5.960,-5.585
4.156,-5.960,-5.575
4.158,-5.935,-5.570
4.161,-5.945,-5.590
4.164,-5.945,-5.610
4.167,-5.940,-5.590
4.169,-5.940,-5.615
4.172,-5.915,-5.605
4.175,-5.915,-5.600
4.178,-5.885,-5.625
4.181,-5.870,-5.610
4.183,-5.850,-5.635
4.186,-5.840,-5.655
4.189,-5.850,-5.645
4.192,-5.850,-5.665
4.194,-5.840,-5.670
4.197,-5.825,-5.670
4.200,-5.800,-5.660
4.203,-5.790,-5.660
4.206,-5.775,-5.615
4.208,-5.780,-5.590
4.211,-5.780,-5.565
4.214,-5.770,-5.550
4.217,-5.765,-5.555
4.219,-5.810,-5.580
4.222,-5.820,-5.585
4.225,-5.845,-5.615
4.228,-5.855,-5.625
4.231,-5.845,-5.620
4.233,-5.830,-5.615
4.236,-5.790,-5.575
4.239,-5.765,-5.545
4.242,-5.735,-5.490
4.244,-5.730,-5.450
4.247,-5.725,-5.425
4.250,-5.745,-5.420
4.253,-5.800,-5.455
4.256,-5.830,-5.485
4.258,-5.855,-5.530
4.261,-5.880,-5.600
4.264,-5.900,-5.615
4.267,-5.905,-5.610
4.269,-5.925,-5.595
4.272,-5.940,-5.570
4.275,-5.935,-5.565
4.278,-5.950,-5.565
4.281,-5.945,-5.560
4.283,-5.935,-5.575
4.286,-5.945,-5.600
4.289,-5.975,-5.625
4.292,-5.975,-5.640
4.294,-5.980,-5.635
4.297,-5.980,-5.635
4.300,-5.985,-5.620
4.303,-5.990,-5.590
4.306,-5.995,-5.605
4.308,-5.970,-5.590
4.311,-5.960,-5.605
4.314,-5.965,-5.600
4.317,-5.960,-5.605
4.319,-5.970,-5.610
4.322,-5.965,-5.620
4.325,-5.965,-5.630
4.328,-5.965,-5.645
4.331,-5.970,-5.655
4.333,-5.965,-5.645
4.336,-5.965,-5.655
4.339,-5.960,-5.650
4.342,-5.945,-5.640
4.344,-5.960,-5.635
4.347,-5.945,-5.640
4.350,-5.945,-5.640
4.353,-5.945,-5.655
4.356,-5.955,-5.675
4.358,-5.980,-5.700
4.361,-5.995,-5.725
4.364,-6.015,-5.770
4.367,-6.025,-5.845
4.369,-6.015,-5.890
4.372,-5.960,-5.990
4.375,-5.865,-6.090
4.378,-5.730,-6.225
4.381,-5.575,-6.355
4.383,-5.440,-6.500
4.386,-5.325,-6.600
4.389,-5.305,-6.660
4.392,-5.305,-6.640
4.394,-5.335,-6.545
4.397,-5.380,-6.420
4.400,-5.350,-6.265
4.403,-5.300,-6.100
4.406,-5.165,-5.920
4.408,-4.990,-5.705
4.411,-4.850,-5.465
4.414,-4.775,-5.135
4.417,-4.845,-4.835
4.419,-5.085,-4.585
4.422,-5.455,-4.470
4.425,-5.850,-4.505
4.428,-6.210,-4.685
4.431,-6.465,-4.930
4.433,-6.630,-5.185
4.436,-6.735,-5.365
4.439,-6.805,-5.500
4.442,-6.840,-5.570
4.444,-6.890,-5.595
4.447,-6.925,-5.635
4.450,-6.950,-5.670
4.453,-6.970,-5.725
4.456,-6.975,-5.765
4.458,-6.985,-5.790
4.461,-6.995,-5.795
4.464,-6.990,-5.805
4.467,-6.990,-5.800
4.469,-7.005,-5.800
4.472,-6.970,-5.790
4.475,-6.925,-5.775
4.478,-6.870,-5.800
4.481,-6.775,-5.815
4.483,-6.620,-5.815
4.486,-6.475,-5.780
4.489,-6.320,-5.755
4.492,-6.185,-5.705
4.494,-6.090,-5.660
4.497,-6.035,-5.640
4.500,-6.000,-5.595
4.503,-6.005,-5.595
4.506,-6.005,-5.585
4.508,-5.980,-5.575
4.511,-5.970,-5.575
4.514,-5.960,-5.585
4.517,-5.935,-5.595
4.519,-5.950,-5.585
4.522,-5.940,-5.610
4.525,-5.955,-5.630
4.528,-5.970,-5.625
4.531,-5.980,-5.635
4.533,-5.980,-5.640
4.536,-6.005,-5.645
4.539,-6.000,-5.640
4.542,-6.015,-5.625
4.544,-5.990,-5.650
4.547,-5.995,-5.635
4.550,-5.985,-5.650
4.553,-5.985,-5.675
4.556,-6.005,-5.685
4.558,-6.025,-5.695
4.561,-6.035,-5.715
4.564,-6.065,-5.740
4.567,-6.085,-5.760
4.569,-6.095,-5.760
4.572,-6.095,-5.770
4.575,-6.110,-5.780
4.578,-6.095,-5.760
4.581,-6.095,-5.775
4.583,-6.095,-5.800
4.586,-6.095,-5.805
4.589,-6.130,-5.820
4.592,-6.140,-5.855
4.594,-6.155,-5.875
4.597,-6.165,-5.890
4.600,-6.190,-5.900
4.603,-6.205,-5.920
4.606,-6.215,-5.920
4.608,-6.235,-5.920
4.611,-6.245,-5.910
4.614,-6.265,-5.920
4.617,-6.280,-5.935
4.619,-6.300,-5.955
4.622,-6.320,-5.950
4.625,-6.345,-5.975
4.628,-6.365,-5.985
4.631,-6.395,-5.995
4.633,-6.400,-6.025
4.636,-6.430,-6.010
4.639,-6.435,-6.005
4.642,-6.430,-5.990
4.644,-6.400,-6.000
4.647,-6.395,-5.975
4.650,-6.355,-6.000
4.653,-6.350,-6.000
4.656,-6.325,-6.010
4.658,-6.305,-6.025
4.661,-6.280,-6.035
4.664,-6.245,-6.045
4.667,-6.220,-6.045
4.669,-6.195,-6.040
4.672,-6.175,-6.030
4.675,-6.140,-6.010
4.678,-6.125,-6.015
4.681,-6.105,-5.985
4.683,-6.065,-5.970
4.686,-6.070,-5.970
4.689,-6.045,-5.960
4.692,-6.030,-5.940
4.694,-6.030,-5.935
4.697,-6.025,-5.925
4.700,-6.005,-5.920
4.703,-6.025,-5.890
4.706,-6.020,-5.870
4.708,-6.000,-5.840
4.711,-5.980,-5.820
4.714,-5.960,-5.805
4.717,-5.960,-5.790
4.719,-5.945,-5.780
4.722,-5.955,-5.760
4.725,-5.945,-5.760
4.728,-5.960,-5.770
4.731,-5.955,-5.770
4.733,-5.960,-5.750
4.736,-5.960,-5.730
4.739,-5.945,-5.715
4.742,-5.940,-5.695
4.744,-5.905,-5.700
4.747,-5.915,-5.685
4.750,-5.900,-5.680
4.753,-5.900,-5.685
4.756,-5.895,-5.670
4.758,-5.885,-5.670
4.761,-5.900,-5.680
4.764,-5.910,-5.680
4.767,-5.930,-5.675
4.769,-5.925,-5.670
4.772,-5.925,-5.680
4.775,-5.925,-5.660
4.778,-5.915,-5.660
4.781,-5.910,-5.645
4.783,-5.890,-5.625
4.786,-5.885,-5.655
4.789,-5.905,-5.650
4.792,-5.915,-5.660
4.794,-5.920,-5.690
4.797,-5.940,-5.690
4.800,-5.945,-5.695
4.803,-5.965,-5.680
4.806,-5.965,-5.695
4.808,-5.965,-5.700
4.811,-5.955,-5.690
4.814,-5.945,-5.680
4.817,-5.945,-5.685
4.819,-5.945,-5.690
4.822,-5.945,-5.700
4.825,-5.955,-5.700
4.828,-5.980,-5.715
4.831,-5.975,-5.740
4.833,-5.975,-5.745
4.836,-6.005,-5.745
4.839,-5.990,-5.730
4.842,-5.985,-5.720
4.844,-5.980,-5.735
4.847,-5.975,-5.745
4.850,-5.985,-5.745
4.853,-5.975,-5.750
4.856,-5.995,-5.755
4.858,-5.980,-5.760
4.861,-5.975,-5.775
4.864,-5.975,-5.775
4.867,-5.975,-5.790
4.869,-5.985,-5.780
4.872,-5.975,-5.790
4.875,-5.960,-5.755
4.878,-5.965,-5.770
4.881,-5.960,-5.765
4.883,-5.955,-5.770
4.886,-5.955,-5.775
4.889,-5.950,-5.760
4.892,-5.965,-5.785
4.894,-5.985,-5.785
4.897,-5.985,-5.800
4.900,-5.990,-5.795
4.903,-5.995,-5.800
4.906,-5.990,-5.805
4.908,-5.975,-5.785
4.911,-5.965,-5.780
4.914,-5.940,-5.740
4.917,-5.935,-5.735
4.919,-5.950,-5.750
4.922,-5.955,-5.765
4.925,-5.960,-5.770
4.928,-5.975,-5.770
4.931,-5.980,-5.800
4.933,-5.975,-5.785
4.936,-5.985,-5.795
4.939,-5.965,-5.790
4.942,-5.970,-5.775
4.944,-5.955,-5.750
4.947,-5.975,-5.765
4.950,-5.935,-5.750
4.953,-5.955,-5.750
4.956,-5.945,-5.770
4.958,-5.955,-5.810
4.961,-5.955,-5.830
4.964,-5.960,-5.845
4.967,-5.960,-5.845
4.969,-5.955,-5.830
4.972,-5.935,-5.830
4.975,-5.920,-5.805
4.978,-5.905,-5.795
4.981,-5.895,-5.800
4.983,-5.880,-5.795
4.986,-5.885,-5.820
4.989,-5.860,-5.840
4.992,-5.870,-5.855
4.994,-5.870,-5.885
4.997,-5.860,-5.885
5.000,-5.860,-5.895
5.003,-5.845,-5.870
5.006,-5.825,-5.840
5.008,-5.790,-5.815
5.011,-5.770,-5.805
5.014,-5.750,-5.790
5.017,-5.745,-5.775
5.019,-5.765,-5.775
5.022,-5.780,-5.790
5.025,-5.810,-5.800
5.028,-5.835,-5.815
5.031,-5.850,-5.835
5.033,-5.870,-5.835
5.036,-5.870,-5.825
5.039,-5.840,-5.835
5.042,-5.800,-5.805
5.044,-5.770,-5.775
5.047,-5.750,-5.715
5.050,-5.740,-5.700
5.053,-5.760,-5.680
5.056,-5.795,-5.660
5.058,-5.830,-5.695
5.061,-5.880,-5.720
5.064,-5.915,-5.750
5.067,-5.945,-5.775
5.069,-5.960,-5.805
5.072,-5.950,-5.780
5.075,-5.955,-5.780
5.078,-5.945,-5.760
5.081,-5.960,-5.760
5.083,-5.950,-5.755
5.086,-5.985,-5.780
5.089,-5.985,-5.805
5.092,-6.020,-5.825
5.094,-6.020,-5.845
5.097,-6.040,-5.840
5.100,-6.025,-5.875
5.103,-6.030,-5.880
5.106,-6.030,-5.890
5.108,-6.035,-5.865
5.111,-6.015,-5.875
5.114,-5.990,-5.855
5.117,-5.990,-5.860
5.119,-5.985,-5.860
5.122,-5.990,-5.855
5.125,-6.005,-5.875
5.128,-6.020,-5.865
5.131,-6.035,-5.880
5.133,-6.030,-5.890
5.136,-6.045,-5.890
5.139,-6.055,-5.875
5.142,-6.050,-5.885
5.144,-6.045,-5.850
5.147,-6.035,-5.870
5.150,-6.025,-5.860
5.153,-6.005,-5.885
5.156,-6.010,-5.885
5.158,-6.020,-5.885
5.161,-6.010,-5.900
5.164,-6.005,-5.900
5.167,-6.030,-5.920
5.169,-6.055,-5.915
5.172,-6.060,-5.925
5.175,-6.060,-5.935
5.178,-6.040,-5.955
5.181,-6.020,-6.015
5.183,-5.965,-6.090
5.186,-5.885,-6.200
5.189,-5.770,-6.305
5.192,-5.640,-6.430
5.194,-5.515,-6.535
5.197,-5.365,-6.635
5.200,-5.265,-6.710
5.203,-5.230,-6.740
5.206,-5.255,-6.680
5.208,-5.280,-6.555
5.211,-5.270,-6.415
5.214,-5.210,-6.275
5.217,-5.085,-6.145
5.219,-4.940,-6.005
5.222,-4.785,-5.805
5.225,-4.715,-5.575
5.228,-4.765,-5.265
5.231,-4.975,-4.980
5.233,-5.340,-4.790
5.236,-5.785,-4.720
5.239,-6.230,-4.825
5.242,-6.575,-5.065
5.244,-6.805,-5.340
5.247,-6.925,-5.580
5.250,-7.010,-5.760
5.253,-7.035,-5.875
5.256,-7.085,-5.945
5.258,-7.120,-6.000
5.261,-7.145,-6.040
5.264,-7.170,-6.075
5.267,-7.175,-6.100
5.269,-7.175,-6.130
5.272,-7.180,-6.120
5.275,-7.160,-6.105
5.278,-7.145,-6.070
5.281,-7.130,-6.060
5.283,-7.100,-6.055
5.286,-7.060,-6.075
5.289,-7.000,-6.095
5.292,-6.900,-6.120
5.294,-6.785,-6.130
5.297,-6.625,-6.105
5.300,-6.480,-6.050
5.303,-6.360,-5.970
5.306,-6.250,-5.880
5.308,-6.165,-5.810
5.311,-6.115,-5.750
5.314,-6.100,-5.720
5.317,-6.090,-5.705
5.319,-6.095,-5.715
5.322,-6.085,-5.725
5.325,-6.075,-5.745
5.328,-6.065,-5.770
5.331,-6.070,-5.795
5.333,-6.070,-5.785
5.336,-6.065,-5.780
5.339,-6.050,-5.775
5.342,-6.055,-5.755
5.344,-6.055,-5.740
5.347,-6.060,-5.730
5.350,-6.055,-5.720
5.353,-6.075,-5.745
5.356,-6.065,-5.765
5.358,-6.060,-5.770
5.361,-6.080,-5.790
5.364,-6.105,-5.805
5.367,-6.100,-5.815
5.369,-6.105,-5.805
5.372,-6.105,-5.795
5.375,-6.105,-5.790
5.378,-6.125,-5.795
5.381,-6.120,-5.800
5.383,-6.125,-5.840
5.386,-6.135,-5.880
5.389,-6.120,-5.910
5.392,-6.150,-5.940
5.394,-6.160,-5.990
5.397,-6.175,-5.995
5.400,-6.195,-5.995
5.403,-6.200,-6.015
5.406,-6.220,-6.030
5.408,-6.215,-6.035
5.411,-6.225,-6.050
5.414,-6.215,-6.065
5.417,-6.215,-6.100
5.419,-6.230,-6.105
5.422,-6.260,-6.140
5.425,-6.260,-6.150
5.428,-6.285,-6.155
5.431,-6.310,-6.165
5.433,-6.325,-6.165
5.436,-6.315,-6.155
5.439,-6.320,-6.165
5.442,-6.310,-6.155
5.444,-6.300,-6.160
5.447,-6.305,-6.145
5.450,-6.285,-6.150
5.453,-6.300,-6.130
5.456,-6.305,-6.130
5.458,-6.300,-6.140
5.461,-6.300,-6.160
5.464,-6.310,-6.165
5.467,-6.320,-6.160
5.469,-6.340,-6.160
5.472,-6.315,-6.140
5.475,-6.295,-6.150
5.478,-6.280,-6.135
5.481,-6.255,-6.120
5.483,-6.255,-6.105
5.486,-6.225,-6.105
5.489,-6.220,-6.095
5.492,-6.200,-6.085
5.494,-6.200,-6.080
5.497,-6.185,-6.070
5.500,-6.185,-6.060
5.503,-6.165,-6.020
5.506,-6.145,-6.030
5.508,-6.125,-6.010
5.511,-6.100,-5.995
5.514,-6.070,-5.960
5.517,-6.045,-5.940
5.519,-6.050,-5.925
5.522,-6.050,-5.895
5.525,-6.035,-5.890
5.528,-6.020,-5.870
5.531,-6.015,-5.860
5.533,-5.990,-5.820
5.536,-5.990,-5.810
5.539,-5.985,-5.780
5.542,-5.975,-5.790
5.544,-5.975,-5.765
5.547,-5.965,-5.740
5.550,-5.955,-5.730
5.553,-5.945,-5.720
5.556,-5.945,-5.725
5.558,-5.945,-5.740
5.561,-5.940,-5.745
5.564,-5.950,-5.760
5.567,-5.945,-5.755
5.569,-5.965,-5.750
5.572,-5.965,-5.730
5.575,-5.945,-5.720
5.578,-5.950,-5.700
5.581,-5.945,-5.705
5.583,-5.940,-5.690
5.586,-5.940,-5.700
5.589,-5.925,-5.695
5.592,-5.930,-5.710
5.594,-5.960,-5.725
5.597,-5.930,-5.720
5.600,-5.940,-5.720
5.603,-5.950,-5.695
5.606,-5.960,-5.680
5.608,-5.970,-5.685
5.611,-5.970,-5.680
5.614,-5.950,-5.690
5.617,-5.955,-5.700
5.619,-5.930,-5.705
5.622,-5.935,-5.710
5.625,-5.930,-5.720
5.628,-5.940,-5.710
5.631,-5.955,-5.730
5.633,-5.975,-5.725
5.636,-5.960,-5.695
5.639,-5.970,-5.710
5.642,-5.975,-5.695
5.644,-5.975,-5.660
5.647,-5.970,-5.665
5.650,-5.955,-5.670
5.653,-5.965,-5.685
5.656,-5.970,-5.700
5.658,-5.955,-5.705
5.661,-5.980,-5.710
5.664,-5.995,-5.710
5.667,-5.980,-5.720
5.669,-5.975,-5.690
5.672,-5.975,-5.675
5.675,-5.960,-5.675
5.678,-5.950,-5.665
5.681,-5.955,-5.655
5.683,-5.940,-5.675
5.686,-5.945,-5.665
5.689,-5.960,-5.700
5.692,-5.960,-5.700
5.694,-5.965,-5.720
5.697,-5.965,-5.730
5.700,-5.960,-5.730
5.703,-5.955,-5.715
5.706,-5.965,-5.720
5.708,-5.935,-5.725
5.711,-5.940,-5.705
5.714,-5.930,-5.685
5.717,-5.925,-5.695
5.719,-5.940,-5.695
5.722,-5.930,-5.685
5.725,-5.940,-5.705
5.728,-5.945,-5.715
5.731,-5.950,-5.725
5.733,-5.950,-5.735
5.736,-5.945,-5.725
5.739,-5.940,-5.725
5.742,-5.920,-5.700
5.744,-5.920,-5.690
5.747,-5.915,-5.685
5.750,-5.900,-5.670
5.753,-5.905,-5.700
5.756,-5.910,-5.720
5.758,-5.915,-5.735
5.761,-5.915,-5.755
5.764,-5.920,-5.755
5.767,-5.930,-5.750
5.769,-5.940,-5.750
5.772,-5.915,-5.735
5.775,-5.905,-5.715
5.778,-5.905,-5.710
5.781,-5.895,-5.705
5.783,-5.880,-5.690
5.786,-5.875,-5.715
5.789,-5.885,-5.700
5.792,-5.895,-5.725
5.794,-5.890,-5.730
5.797,-5.895,-5.750
5.800,-5.870,-5.760
5.803,-5.860,-5.790
5.806,-5.855,-5.770
5.808,-5.835,-5.775
5.811,-5.815,-5.790
5.814,-5.795,-5.760
5.817,-5.780,-5.735
5.819,-5.775,-5.740
5.822,-5.775,-5.735
5.825,-5.780,-5.755
5.828,-5.790,-5.755
5.831,-5.780,-5.755
5.833,-5.770,-5.760
5.836,-5.770,-5.750
5.839,-5.750,-5.735
5.842,-5.725,-5.695
5.844,-5.720,-5.660
5.847,-5.730,-5.630
5.850,-5.730,-5.610
5.853,-5.765,-5.600
5.856,-5.785,-5.615
5.858,-5.805,-5.650
5.861,-5.815,-5.690
5.864,-5.845,-5.675
5.867,-5.835,-5.680
5.869,-5.830,-5.665
5.872,-5.815,-5.630
5.875,-5.805,-5.580
5.878,-5.790,-5.550
5.881,-5.770,-5.520
5.883,-5.790,-5.495
5.886,-5.810,-5.495
5.889,-5.840,-5.530
5.892,-5.880,-5.540
5.894,-5.920,-5.585
5.897,-5.955,-5.635
5.900,-5.965,-5.650
5.903,-5.985,-5.660
5.906,-5.995,-5.625
5.908,-6.005,-5.615
5.911,-6.005,-5.615
5.914,-6.000,-5.600
5.917,-6.000,-5.610
5.919,-6.000,-5.640
5.922,-6.025,-5.660
5.925,-6.020,-5.660
5.928,-6.030,-5.655
5.931,-6.045,-5.660
5.933,-6.065,-5.670
5.936,-6.075,-5.660
5.939,-6.070,-5.675
5.942,-6.055,-5.660
5.944,-6.060,-5.665
5.947,-6.040,-5.665
5.950,-6.025,-5.655
5.953,-6.040,-5.660
5.956,-6.040,-5.650
5.958,-6.045,-5.630
5.961,-6.045,-5.645
5.964,-6.045,-5.645
5.967,-6.055,-5.665
5.969,-6.060,-5.645
5.972,-6.040,-5.665
5.975,-6.035,-5.645
5.978,-6.035,-5.660
5.981,-6.010,-5.640
5.983,-6.000,-5.640
5.986,-6.000,-5.640
5.989,-5.985,-5.645
5.992,-6.005,-5.680
5.994,-6.025,-5.715
5.997,-6.065,-5.760
6.000,-6.060,-5.800
6.003,-6.085,-5.840
6.006,-6.070,-5.890
6.008,-6.005,-5.970
6.011,-5.895,-6.075
6.014,-5.770,-6.165
6.017,-5.600,-6.305
6.019,-5.450,-6.405
6.022,-5.315,-6.515
6.025,-5.255,-6.560
6.028,-5.245,-6.530
6.031,-5.260,-6.450
6.033,-5.255,-6.310
6.036,-5.220,-6.180
6.039,-5.090,-6.030
6.042,-4.935,-5.845
6.044,-4.785,-5.620
6.047,-4.705,-5.340
6.050,-4.780,-5.000
6.053,-5.025,-4.700
6.056,-5.405,-4.545
6.058,-5.845,-4.570
6.061,-6.255,-4.740
6.064,-6.560,-5.035
6.067,-6.770,-5.300
6.069,-6.885,-5.505
6.072,-6.935,-5.625
6.075,-6.950,-5.675
6.078,-6.970,-5.700
6.081,-6.990,-5.710
6.083,-7.000,-5.760
6.086,-7.020,-5.810
6.089,-7.030,-5.830
6.092,-7.045,-5.865
6.094,-7.065,-5.870
6.097,-7.065,-5.855
6.100,-7.055,-5.845
6.103,-7.040,-5.835
6.106,-7.015,-5.825
6.108,-6.970,-5.845
6.111,-6.885,-5.860
6.114,-6.780,-5.865
6.117,-6.630,-5.845
6.119,-6.490,-5.830
6.122,-6.360,-5.790
6.125,-6.255,-5.735
6.128,-6.175,-5.700
6.131,-6.135,-5.665
6.133,-6.140,-5.635
6.136,-6.125,-5.615
6.139,-6.130,-5.595
6.142,-6.130,-5.605
6.144,-6.100,-5.625
6.147,-6.080,-5.620
6.150,-6.080,-5.620
6.153,-6.055,-5.625
6.156,-6.050,-5.635
6.158,-6.050,-5.655
6.161,-6.050,-5.670
6.164,-6.065,-5.665
6.167,-6.065,-5.705
6.169,-6.105,-5.680
6.172,-6.085,-5.700
6.175,-6.075,-5.685
6.178,-6.075,-5.680
6.181,-6.070,-5.690
6.183,-6.060,-5.685
6.186,-6.065,-5.695
6.189,-6.070,-5.705
6.192,-6.095,-5.740
6.194,-6.095,-5.755
6.197,-6.115,-5.775
6.200,-6.120,-5.780
6.203,-6.125,-5.785
6.206,-6.130,-5.790
6.208,-6.140,-5.785
6.211,-6.145,-5.790
6.214,-6.155,-5.820
6.217,-6.140,-5.820
6.219,-6.140,-5.850
6.222,-6.160,-5.890
6.225,-6.175,-5.915
6.228,-6.190,-5.945
6.231,-6.200,-5.960
6.233,-6.210,-5.975
6.236,-6.215,-5.960
6.239,-6.235,-5.980
6.242,-6.245,-5.955
6.244,-6.250,-5.975
6.247,-6.225,-5.985
6.250,-6.235,-5.990
6.253,-6.240,-6.015
6.256,-6.240,-6.030
6.258,-6.260,-6.045
6.261,-6.265,-6.055
6.264,-6.280,-6.075
6.267,-6.300,-6.080
6.269,-6.305,-6.080
6.272,-6.320,-6.075
6.275,-6.310,-6.075
6.278,-6.305,-6.070
6.281,-6.305,-6.065
6.283,-6.295,-6.065
6.286,-6.285,-6.065
6.289,-6.280,-6.075
6.292,-6.280,-6.085
6.294,-6.290,-6.085
6.297,-6.295,-6.100
6.300,-6.295,-6.105
6.303,-6.275,-6.095
6.306,-6.265,-6.105
6.308,-6.255,-6.080
6.311,-6.225,-6.070
6.314,-6.215,-6.070
6.317,-6.200,-6.060
6.319,-6.170,-6.035
6.322,-6.140,-6.050
6.325,-6.130,-6.045
6.328,-6.110,-6.045
6.331,-6.085,-6.040
6.333,-6.075,-6.005
6.336,-6.075,-5.990
6.339,-6.060,-5.975
6.342,-6.040,-5.945
6.344,-6.030,-5.925
6.347,-6.010,-5.890
6.350,-5.990,-5.865
6.353,-5.980,-5.870
6.356,-5.955,-5.885
6.358,-5.970,-5.875
6.361,-5.970,-5.880
6.364,-5.955,-5.865
6.367,-5.945,-5.865
6.369,-5.945,-5.830
6.372,-5.925,-5.820
6.375,-5.930,-5.780
6.378,-5.915,-5.745
6.381,-5.890,-5.730
6.383,-5.885,-5.735
6.386,-5.885,-5.725
6.389,-5.885,-5.720
6.392,-5.890,-5.740
6.394,-5.880,-5.745
6.397,-5.890,-5.755
6.400,-5.885,-5.745
6.403,-5.880,-5.735
6.406,-5.875,-5.725
6.408,-5.880,-5.710
6.411,-5.865,-5.685
6.414,-5.860,-5.665
6.417,-5.855,-5.655
6.419,-5.855,-5.670
6.422,-5.870,-5.670
6.425,-5.880,-5.685
6.428,-5.880,-5.685
6.431,-5.880,-5.695
6.433,-5.890,-5.685
6.436,-5.885,-5.680
6.439,-5.880,-5.680
6.442,-5.875,-5.665
6.444,-5.860,-5.650
6.447,-5.860,-5.665
6.450,-5.860,-5.625
6.453,-5.860,-5.635
6.456,-5.880,-5.625
6.458,-5.885,-5.640
6.461,-5.895,-5.650
6.464,-5.920,-5.655
6.467,-5.920,-5.670
6.469,-5.915,-5.645
6.472,-5.905,-5.635
6.475,-5.900,-5.615
6.478,-5.905,-5.610
6.481,-5.905,-5.585
6.483,-5.910,-5.580
6.486,-5.900,-5.590
6.489,-5.930,-5.595
6.492,-5.925,-5.615
6.494,-5.960,-5.640
6.497,-5.965,-5.645
6.500,-5.980,-5.630
6.503,-5.995,-5.645
6.506,-5.990,-5.635
6.508,-5.995,-5.600
6.511,-5.980,-5.615
6.514,-5.975,-5.595
6.517,-5.965,-5.600
6.519,-5.955,-5.580
6.522,-5.955,-5.615
6.525,-5.970,-5.620
6.528,-5.985,-5.630
6.531,-5.990,-5.635
6.533,-5.995,-5.635
6.536,-5.995,-5.640
6.539,-5.985,-5.620
6.542,-5.990,-5.625
6.544,-5.990,-5.600
6.547,-5.995,-5.600
6.550,-5.985,-5.590
6.553,-5.980,-5.620
6.556,-5.970,-5.630
6.558,-5.975,-5.640
6.561,-5.985,-5.675
6.564,-5.995,-5.690
6.567,-6.000,-5.695
6.569,-6.010,-5.695
6.572,-6.005,-5.675
6.575,-6.000,-5.680
6.578,-6.000,-5.645
6.581,-5.995,-5.645
6.583,-5.990,-5.635
6.586,-5.980,-5.640
6.589,-5.990,-5.650
6.592,-5.995,-5.655
6.594,-6.005,-5.660
6.597,-6.000,-5.675
6.600,-6.015,-5.685
6.603,-6.015,-5.695
6.606,-6.020,-5.690
6.608,-6.010,-5.680
6.611,-6.010,-5.675
6.614,-6.000,-5.660
6.617,-5.975,-5.640
6.619,-5.950,-5.650
6.622,-5.935,-5.660
6.625,-5.935,-5.660
6.628,-5.930,-5.695
6.631,-5.930,-5.700
6.633,-5.940,-5.715
6.636,-5.925,-5.735
6.639,-5.900,-5.730
6.642,-5.915,-5.735
6.644,-5.880,-5.740
6.647,-5.865,-5.725
6.650,-5.840,-5.710
6.653,-5.835,-5.705
6.656,-5.830,-5.700
6.658,-5.800,-5.690
6.661,-5.790,-5.685
6.664,-5.795,-5.670
6.667,-5.810,-5.660
6.669,-5.830,-5.655
6.672,-5.850,-5.645
6.675,-5.855,-5.650
6.678,-5.840,-5.675
6.681,-5.865,-5.670
6.683,-5.865,-5.685
6.686,-5.840,-5.705
6.689,-5.835,-5.680
6.692,-5.805,-5.685
6.694,-5.810,-5.665
6.697,-5.805,-5.610
6.700,-5.790,-5.600
6.703,-5.790,-5.585
6.706,-5.800,-5.565
6.708,-5.835,-5.560
6.711,-5.840,-5.580
6.714,-5.870,-5.605
6.717,-5.895,-5.635
6.719,-5.905,-5.670
6.722,-5.925,-5.705
6.725,-5.960,-5.710
6.728,-5.985,-5.725
6.731,-5.980,-5.730
6.733,-6.010,-5.715
6.736,-6.035,-5.730
6.739,-6.025,-5.695
6.742,-6.025,-5.710
6.744,-6.005,-5.695
6.747,-5.995,-5.690
6.750,-6.000,-5.665
6.753,-5.985,-5.685
6.756,-6.005,-5.705
6.758,-6.025,-5.710
6.761,-6.025,-5.705
6.764,-6.010,-5.735
6.767,-6.025,-5.735
6.769,-6.030,-5.730
6.772,-6.040,-5.725
6.775,-6.035,-5.695
6.778,-6.020,-5.695
6.781,-6.040,-5.685
6.783,-6.005,-5.660
6.786,-6.005,-5.670
6.789,-6.015,-5.695
6.792,-6.015,-5.700
6.794,-6.020,-5.725
6.797,-6.030,-5.750
6.800,-6.060,-5.770
6.803,-6.050,-5.765
6.806,-6.050,-5.750
6.808,-6.035,-5.750
6.811,-6.030,-5.715
6.814,-6.015,-5.725
6.817,-6.010,-5.705
6.819,-5.995,-5.730
6.822,-6.005,-5.750
6.825,-6.015,-5.765
6.828,-6.050,-5.770
6.831,-6.045,-5.785
6.833,-6.040,-5.835
6.836,-6.035,-5.905
6.839,-5.975,-6.000
6.842,-5.875,-6.110
6.844,-5.745,-6.215
6.847,-5.600,-6.310
6.850,-5.425,-6.415
6.853,-5.315,-6.525
6.856,-5.270,-6.575
6.858,-5.245,-6.550
6.861,-5.285,-6.485
6.864,-5.310,-6.370
6.867,-5.280,-6.225
6.869,-5.190,-6.095
6.872,-5.035,-5.945
6.875,-4.875,-5.780
6.878,-4.750,-5.510
6.881,-4.720,-5.210
6.883,-4.845,-4.910
6.886,-5.155,-4.665
6.889,-5.550,-4.570
6.892,-5.990,-4.620
6.894,-6.370,-4.820
6.897,-6.635,-5.100
6.900,-6.815,-5.350
6.903,-6.915,-5.545
6.906,-6.965,-5.665
6.908,-7.030,-5.715
6.911,-7.080,-5.770
6.914,-7.105,-5.790
6.917,-7.120,-5.850
6.919,-7.140,-5.890
6.922,-7.130,-5.915
6.925,-7.135,-5.935
6.928,-7.135,-5.930
6.931,-7.130,-5.925
6.933,-7.125,-5.910
6.936,-7.105,-5.920
6.939,-7.050,-5.920
6.942,-6.960,-5.945
6.944,-6.830,-5.945
6.947,-6.675,-5.925
6.950,-6.515,-5.885
6.953,-6.375,-5.825
6.956,-6.275,-5.775
6.958,-6.190,-5.730
6.961,-6.145,-5.680
6.964,-6.130,-5.670
6.967,-6.130,-5.635
6.969,-6.140,-5.640
6.972,-6.135,-5.630
6.975,-6.125,-5.610
6.978,-6.095,-5.595
6.981,-6.095,-5.595
6.983,-6.070,-5.585
6.986,-6.065,-5.610
6.989,-6.075,-5.625
6.992,-6.090,-5.645
6.994,-6.115,-5.655
6.997,-6.120,-5.665
7.000,-6.100,-5.675
7.003,-6.110,-5.675
7.006,-6.115,-5.680
7.008,-6.120,-5.690
7.011,-6.095,-5.705
7.014,-6.090,-5.700
7.017,-6.070,-5.700
7.019,-6.095,-5.705
7.022,-6.100,-5.715
7.025,-6.140,-5.720
7.028,-6.160,-5.720
7.031,-6.155,-5.740
7.033,-6.170,-5.750
7.036,-6.185,-5.755
7.039,-6.190,-5.785
7.042,-6.180,-5.790
7.044,-6.180,-5.790
7.047,-6.185,-5.820
7.050,-6.195,-5.825
7.053,-6.225,-5.850
7.056,-6.205,-5.875
7.058,-6.230,-5.875
7.061,-6.240,-5.895
7.064,-6.245,-5.900
7.067,-6.275,-5.930
7.069,-6.285,-5.945
7.072,-6.300,-5.945
7.075,-6.295,-5.965
7.078,-6.305,-5.965
7.081,-6.305,-5.980
7.083,-6.295,-5.970
7.086,-6.305,-5.985
7.089,-6.310,-5.980
7.092,-6.310,-5.980
7.094,-6.330,-6.000
7.097,-6.325,-6.030
7.100,-6.350,-6.050
7.103,-6.350,-6.075
7.106,-6.355,-6.085
7.108,-6.340,-6.065
7.111,-6.335,-6.060
7.114,-6.320,-6.040
7.117,-6.310,-6.025
7.119,-6.280,-6.035
7.122,-6.270,-6.015
7.125,-6.275,-6.025
7.128,-6.275,-6.030
7.131,-6.250,-6.020
7.133,-6.245,-6.005
7.136,-6.250,-5.990
7.139,-6.240,-5.965
7.142,-6.215,-5.950
7.144,-6.210,-5.945
7.147,-6.170,-5.955
7.150,-6.150,-5.925
7.153,-6.125,-5.905
7.156,-6.105,-5.890
7.158,-6.080,-5.865
7.161,-6.090,-5.850
7.164,-6.080,-5.865
7.167,-6.075,-5.860
7.169,-6.060,-5.835
7.172,-6.055,-5.805
7.175,-6.040,-5.775
7.178,-6.015,-5.745
7.181,-6.015,-5.710
7.183,-6.005,-5.690
7.186,-6.010,-5.700
7.189,-6.020,-5.700
7.192,-6.015,-5.695
7.194,-6.005,-5.695
7.197,-6.005,-5.715
7.200,-6.025,-5.700
7.203,-6.010,-5.695
7.206,-5.995,-5.685
7.208,-5.995,-5.670
7.211,-5.980,-5.650
7.214,-5.980,-5.635
7.217,-5.965,-5.610
7.219,-5.970,-5.610
7.222,-5.965,-5.610
7.225,-5.965,-5.605
7.228,-5.965,-5.610
7.231,-5.970,-5.625
7.233,-5.990,-5.625
7.236,-6.005,-5.630
7.239,-6.005,-5.640
7.242,-5.995,-5.625
7.244,-5.985,-5.605
7.247,-5.975,-5.580
7.250,-5.980,-5.580
7.253,-5.985,-5.595
7.256,-5.970,-5.605
7.258,-5.980,-5.620
7.261,-5.980,-5.615
7.264,-6.005,-5.655
7.267,-6.000,-5.650
7.269,-6.015,-5.655
7.272,-6.025,-5.635
7.275,-6.020,-5.590
7.278,-6.005,-5.595
7.281,-6.005,-5.590
7.283,-5.985,-5.585
7.286,-5.995,-5.600
7.289,-5.995,-5.590
7.292,-6.000,-5.595
7.294,-6.015,-5.630
7.297,-6.020,-5.630
7.300,-6.030,-5.645
7.303,-6.040,-5.655
7.306,-6.035,-5.675
7.308,-6.045,-5.635
7.311,-6.030,-5.625
7.314,-6.010,-5.580
7.317,-6.015,-5.585
7.319,-6.005,-5.595
7.322,-6.010,-5.610
7.325,-6.010,-5.620
7.328,-6.020,-5.645
7.331,-6.015,-5.620
7.333,-6.025,-5.635
7.336,-5.995,-5.635
7.339,-6.020,-5.620
7.342,-6.020,-5.600
7.344,-6.005,-5.585
7.347,-6.010,-5.580
7.350,-6.020,-5.550
7.353,-5.995,-5.570
7.356,-6.015,-5.585
7.358,-6.015,-5.600
7.361,-5.995,-5.630
7.364,-6.005,-5.640
7.367,-6.005,-5.630
7.369,-6.005,-5.610
7.372,-6.005,-5.595
7.375,-5.995,-5.585
7.378,-5.975,-5.580
7.381,-5.980,-5.570
7.383,-5.960,-5.565
7.386,-5.965,-5.570
7.389,-5.975,-5.585
7.392,-5.985,-5.595
7.394,-6.000,-5.600
7.397,-6.010,-5.600
7.400,-6.005,-5.615
7.403,-6.005,-5.620
7.406,-5.995,-5.610
7.408,-5.995,-5.610
7.411,-6.000,-5.595
7.414,-5.980,-5.585
7.417,-5.955,-5.565
7.419,-5.970,-5.565
7.422,-5.960,-5.580
7.425,-5.955,-5.590
7.428,-5.960,-5.610
7.431,-5.960,-5.600
7.433,-5.965,-5.590
7.436,-5.960,-5.605
7.439,-5.975,-5.605
7.442,-5.955,-5.590
7.444,-5.940,-5.570
7.447,-5.915,-5.560
7.450,-5.905,-5.560
7.453,-5.890,-5.585
7.456,-5.885,-5.605
7.458,-5.880,-5.620
7.461,-5.895,-5.660
7.464,-5.885,-5.645
7.467,-5.885,-5.650
7.469,-5.880,-5.630
7.472,-5.860,-5.620
7.475,-5.835,-5.595
7.478,-5.805,-5.550
7.481,-5.800,-5.530
7.483,-5.795,-5.490
7.486,-5.825,-5.500
7.489,-5.835,-5.525
7.492,-5.850,-5.545
7.494,-5.875,-5.565
7.497,-5.885,-5.590
7.500,-5.895,-5.595
7.503,-5.875,-5.580
7.506,-5.865,-5.540
7.508,-5.840,-5.505
7.511,-5.815,-5.455
7.514,-5.805,-5.420
7.517,-5.800,-5.385
7.519,-5.805,-5.410
7.522,-5.835,-5.425
7.525,-5.870,-5.460
7.528,-5.905,-5.515
7.531,-5.925,-5.550
7.533,-5.950,-5.570
7.536,-5.965,-5.585
7.539,-5.960,-5.570
7.542,-5.960,-5.555
7.544,-5.985,-5.515
7.547,-5.990,-5.515
7.550,-5.990,-5.500
7.553,-5.985,-5.525
7.556,-6.000,-5.555
7.558,-6.010,-5.580
7.561,-6.015,-5.595
7.564,-6.025,-5.610
7.567,-6.035,-5.610
7.569,-6.035,-5.625
7.572,-6.040,-5.615
7.575,-6.030,-5.595
7.578,-6.020,-5.580
7.581,-6.005,-5.555
7.583,-6.010,-5.550
7.586,-6.010,-5.545
7.589,-6.010,-5.555
7.592,-6.025,-5.585
7.594,-6.045,-5.580
7.597,-6.040,-5.590
7.600,-6.045,-5.605
7.603,-6.050,-5.620
7.606,-6.045,-5.625
7.608,-6.030,-5.590
7.611,-6.025,-5.590
7.614,-6.030,-5.580
7.617,-6.020,-5.570
7.619,-6.010,-5.585
7.622,-6.005,-5.590
7.625,-6.025,-5.605
7.628,-6.040,-5.620
7.631,-6.045,-5.625
7.633,-6.060,-5.635
7.636,-6.070,-5.645
7.639,-6.065,-5.670
7.642,-6.075,-5.695
7.644,-6.065,-5.745
7.647,-6.040,-5.810
7.650,-5.990,-5.910
7.653,-5.885,-6.030
7.656,-5.765,-6.160
7.658,-5.620,-6.290
7.661,-5.495,-6.410
7.664,-5.380,-6.500
7.667,-5.335,-6.500
7.669,-5.340,-6.445
7.672,-5.365,-6.335
7.675,-5.355,-6.155
7.678,-5.315,-5.985
7.681,-5.175,-5.845
7.683,-5.025,-5.670
7.686,-4.870,-5.435
7.689,-4.800,-5.145
7.692,-4.900,-4.815
7.694,-5.155,-4.570
7.697,-5.535,-4.460
7.700,-5.950,-4.480
7.703,-6.280,-4.695
7.706,-6.530,-4.945
7.708,-6.660,-5.175
7.711,-6.725,-5.350
7.714,-6.760,-5.440
7.717,-6.810,-5.475
7.719,-6.845,-5.545
7.722,-6.905,-5.590
7.725,-6.945,-5.640
7.728,-6.965,-5.690
7.731,-6.985,-5.730
7.733,-7.000,-5.730
7.736,-7.005,-5.725
7.739,-7.015,-5.710
7.742,-7.010,-5.720
7.744,-6.990,-5.705
7.747,-6.950,-5.720
7.750,-6.875,-5.730
7.753,-6.775,-5.745
7.756,-6.645,-5.760
7.758,-6.525,-5.740
7.761,-6.390,-5.720
7.764,-6.265,-5.660
7.767,-6.195,-5.610
7.769,-6.155,-5.565
7.772,-6.125,-5.525
7.775,-6.130,-5.515
7.778,-6.135,-5.515
7.781,-6.125,-5.515
7.783,-6.095,-5.505
7.786,-6.070,-5.515
7.789,-6.050,-5.520
7.792,-6.055,-5.515
7.794,-6.065,-5.520
7.797,-6.070,-5.530
7.800,-6.060,-5.530
7.803,-6.050,-5.545
7.806,-6.040,-5.545
7.808,-6.045,-5.545
7.811,-6.065,-5.570
7.814,-6.065,-5.555
7.817,-6.070,-5.570
7.819,-6.060,-5.550
7.822,-6.075,-5.565
7.825,-6.080,-5.575
7.828,-6.070,-5.620
7.831,-6.090,-5.645
7.833,-6.080,-5.670
7.836,-6.090,-5.690
7.839,-6.095,-5.695
7.842,-6.095,-5.700
7.844,-6.100,-5.700
7.847,-6.105,-5.700
7.850,-6.090,-5.725
7.853,-6.105,-5.755
7.856,-6.135,-5.770
7.858,-6.160,-5.790
7.861,-6.185,-5.800
7.864,-6.205,-5.840
7.867,-6.190,-5.845
7.869,-6.190,-5.875
7.872,-6.190,-5.860
7.875,-6.190,-5.870
7.878,-6.190,-5.870
7.881,-6.200,-5.875
7.883,-6.215,-5.910
7.886,-6.220,-5.920
7.889,-6.230,-5.950
7.892,-6.265,-5.980
7.894,-6.265,-5.970
7.897,-6.285,-6.020
7.900,-6.280,-6.000
7.903,-6.300,-5.995
7.906,-6.295,-6.025
7.908,-6.305,-6.000
7.911,-6.305,-6.030
7.914,-6.305,-6.015
7.917,-6.290,-6.000
7.919,-6.280,-6.030
7.922,-6.280,-6.025
7.925,-6.285,-6.025
7.928,-6.280,-6.055
7.931,-6.285,-6.065
7.933,-6.290,-6.065
7.936,-6.295,-6.055
7.939,-6.285,-6.045
7.942,-6.270,-6.010
7.944,-6.240,-5.985
7.947,-6.225,-5.970
7.950,-6.205,-5.950
7.953,-6.180,-5.960
7.956,-6.160,-5.950
7.958,-6.150,-5.955
7.961,-6.150,-5.955
7.964,-6.155,-5.930
7.967,-6.125,-5.910
7.969,-6.115,-5.890
7.972,-6.100,-5.870
7.975,-6.080,-5.835
7.978,-6.050,-5.815
7.981,-6.040,-5.805
7.983,-6.010,-5.795
7.986,-6.000,-5.790
7.989,-5.990,-5.780
7.992,-5.995,-5.780
7.994,-5.990,-5.765
7.997,-5.975,-5.770
8.000,-5.990,-5.745
8.003,-5.990,-5.765
8.006,-5.995,-5.755
8.008,-5.990,-5.745
8.011,-5.960,-5.695
8.014,-5.945,-5.690
8.017,-5.950,-5.690
8.019,-5.925,-5.680
8.022,-5.935,-5.690
8.025,-5.945,-5.665
8.028,-5.955,-5.680
8.031,-5.970,-5.680
8.033,-5.965,-5.680
8.036,-5.960,-5.660
8.039,-5.945,-5.665
8.042,-5.950,-5.630
8.044,-5.935,-5.640
8.047,-5.930,-5.620
8.050,-5.920,-5.620
8.053,-5.925,-5.615
8.056,-5.920,-5.615
8.058,-5.930,-5.625
8.061,-5.940,-5.645
8.064,-5.965,-5.650
8.067,-5.975,-5.645
8.069,-5.965,-5.640
8.072,-5.970,-5.650
8.075,-5.960,-5.625
8.078,-5.950,-5.620
8.081,-5.955,-5.610
8.083,-5.955,-5.615
8.086,-5.950,-5.620
8.089,-5.955,-5.615
8.092,-5.960,-5.615
8.094,-5.980,-5.635
8.097,-5.985,-5.645
8.100,-6.005,-5.640
8.103,-6.015,-5.640
8.106,-6.005,-5.650
8.108,-6.015,-5.655
8.111,-6.010,-5.650
8.114,-6.005,-5.640
8.117,-6.005,-5.630
8.119,-5.985,-5.640
8.122,-5.960,-5.640
8.125,-5.935,-5.635
8.128,-5.940,-5.655
8.131,-5.965,-5.655
8.133,-5.985,-5.665
8.136,-6.035,-5.665
8.139,-6.065,-5.660
8.142,-6.035,-5.640
8.144,-6.000,-5.630
8.147,-5.985,-5.600
8.150,-5.955,-5.600
8.153,-5.975,-5.610
8.156,-6.000,-5.630
8.158,-6.040,-5.640
8.161,-6.055,-5.630
8.164,-6.060,-5.630
8.167,-6.055,-5.620
8.169,-6.065,-5.625
8.172,-6.050,-5.615
8.175,-6.055,-5.625
8.178,-6.035,-5.630
8.181,-6.030,-5.635
8.183,-6.005,-5.650
8.186,-6.005,-5.640
8.189,-6.015,-5.635
8.192,-6.010,-5.665
8.194,-6.025,-5.670
8.197,-6.045,-5.660
8.200,-6.020,-5.655
8.203,-6.030,-5.610
8.206,-6.030,-5.600
8.208,-6.015,-5.605
8.211,-6.005,-5.615
8.214,-5.985,-5.620
8.217,-5.975,-5.630
8.219,-5.970,-5.635
8.222,-5.975,-5.645
8.225,-5.985,-5.660
8.228,-5.990,-5.670
8.231,-5.990,-5.685
8.233,-5.970,-5.685
8.236,-5.985,-5.665
8.239,-5.950,-5.660
8.242,-5.955,-5.630
8.244,-5.925,-5.630
8.247,-5.885,-5.615
8.250,-5.890,-5.630
8.253,-5.870,-5.650
8.256,-5.865,-5.660
8.258,-5.855,-5.675
8.261,-5.865,-5.690
8.264,-5.865,-5.690
8.267,-5.880,-5.685
8.269,-5.895,-5.670
8.272,-5.900,-5.645
8.275,-5.885,-5.605
8.278,-5.880,-5.565
8.281,-5.870,-5.555
8.283,-5.855,-5.540
8.286,-5.885,-5.550
8.289,-5.895,-5.575
8.292,-5.885,-5.575
8.294,-5.880,-5.595
8.297,-5.855,-5.610
8.300,-5.835,-5.605
8.303,-5.850,-5.610
8.306,-5.845,-5.580
8.308,-5.870,-5.555
8.311,-5.870,-5.520
8.314,-5.910,-5.500
8.317,-5.915,-5.465
8.319,-5.950,-5.505
8.322,-6.015,-5.530
8.325,-6.040,-5.565
8.328,-6.045,-5.625
8.331,-6.050,-5.650
8.333,-6.065,-5.660
8.336,-6.060,-5.690
8.339,-6.055,-5.685
8.342,-6.055,-5.665
8.344,-6.060,-5.655
8.347,-6.070,-5.635
8.350,-6.100,-5.615
8.353,-6.085,-5.600
8.356,-6.080,-5.590
8.358,-6.085,-5.615
8.361,-6.100,-5.640
8.364,-6.115,-5.655
8.367,-6.110,-5.670
8.369,-6.105,-5.665
8.372,-6.090,-5.665
8.375,-6.100,-5.645
8.378,-6.075,-5.630
8.381,-6.095,-5.630
8.383,-6.080,-5.625
8.386,-6.090,-5.645
8.389,-6.085,-5.655
8.392,-6.105,-5.675
8.394,-6.110,-5.685
8.397,-6.120,-5.700
8.400,-6.130,-5.680
8.403,-6.155,-5.690
8.406,-6.160,-5.700
8.408,-6.155,-5.700
8.411,-6.140,-5.680
8.414,-6.135,-5.675
8.417,-6.125,-5.680
8.419,-6.120,-5.685
8.422,-6.115,-5.680
8.425,-6.135,-5.670
8.428,-6.145,-5.675
8.431,-6.160,-5.695
8.433,-6.185,-5.725
8.436,-6.215,-5.775
8.439,-6.235,-5.850
8.442,-6.240,-5.915
8.444,-6.215,-6.015
8.447,-6.185,-6.140
8.450,-6.100,-6.300
8.453,-6.005,-6.465
8.456,-5.880,-6.615
8.458,-5.780,-6.750
8.461,-5.730,-6.800
8.464,-5.710,-6.775
8.467,-5.705,-6.665
8.469,-5.695,-6.530
8.472,-5.625,-6.360
8.475,-5.490,-6.185
8.478,-5.300,-6.040
8.481,-5.095,-5.860
8.483,-4.930,-5.605
8.486,-4.890,-5.295
8.489,-4.945,-4.995
8.492,-5.135,-4.745
8.494,-5.430,-4.635
8.497,-5.770,-4.660
8.500,-6.120,-4.795
8.503,-6.400,-4.995
8.506,-6.595,-5.190
8.508,-6.715,-5.330
8.511,-6.785,-5.405
8.514,-6.815,-5.460
8.517,-6.855,-5.480
8.519,-6.905,-5.520
8.522,-6.980,-5.550
8.525,-7.025,-5.600
8.528,-7.050,-5.625
8.531,-7.070,-5.650
8.533,-7.085,-5.665
8.536,-7.095,-5.675
8.539,-7.060,-5.690
8.542,-7.055,-5.700
8.544,-7.015,-5.735
8.547,-6.965,-5.735
8.550,-6.885,-5.760
8.553,-6.785,-5.770
8.556,-6.655,-5.750
8.558,-6.525,-5.715
8.561,-6.420,-5.690
8.564,-6.330,-5.655
8.567,-6.265,-5.625
8.569,-6.245,-5.620
8.572,-6.230,-5.595
8.575,-6.245,-5.590
8.578,-6.240,-5.615
8.581,-6.230,-5.600
8.583,-6.220,-5.595
8.586,-6.210,-5.610
8.589,-6.200,-5.595
8.592,-6.200,-5.570
8.594,-6.200,-5.565
8.597,-6.190,-5.575
8.600,-6.210,-5.600
8.603,-6.205,-5.610
8.606,-6.200,-5.605
8.608,-6.185,-5.615
8.611,-6.180,-5.590
8.614,-6.190,-5.630
8.617,-6.195,-5.630
8.619,-6.180,-5.660
8.622,-6.195,-5.685
8.625,-6.200,-5.715
8.628,-6.215,-5.750
8.631,-6.240,-5.740
8.633,-6.250,-5.740
8.636,-6.270,-5.730
8.639,-6.260,-5.725
8.642,-6.270,-5.725
8.644,-6.265,-5.730
8.647,-6.265,-5.730
8.650,-6.260,-5.765
8.653,-6.275,-5.805
8.656,-6.300,-5.825
8.658,-6.305,-5.840
8.661,-6.305,-5.845
8.664,-6.295,-5.855
8.667,-6.305,-5.850
8.669,-6.340,-5.870
8.672,-6.360,-5.895
8.675,-6.385,-5.880
8.678,-6.395,-5.890
8.681,-6.375,-5.920
8.683,-6.385,-5.935
8.686,-6.370,-5.945
8.689,-6.365,-5.950
8.692,-6.365,-5.940
8.694,-6.365,-5.930
8.697,-6.375,-5.955
8.700,-6.400,-5.980
8.703,-6.420,-5.990
8.706,-6.425,-6.005
8.708,-6.415,-5.995
8.711,-6.410,-5.995
8.714,-6.415,-5.985
8.717,-6.415,-5.985
8.719,-6.400,-5.965
8.722,-6.385,-5.980
8.725,-6.385,-5.975
8.728,-6.380,-5.965
8.731,-6.395,-5.995
8.733,-6.395,-6.005
8.736,-6.415,-6.025
8.739,-6.410,-6.035
8.742,-6.390,-6.025
8.744,-6.380,-6.015
8.747,-6.355,-5.980
8.750,-6.330,-5.970
8.753,-6.305,-5.960
8.756,-6.305,-5.955
8.758,-6.295,-5.935
8.761,-6.280,-5.920
8.764,-6.280,-5.895
8.767,-6.260,-5.895
8.769,-6.255,-5.910
8.772,-6.255,-5.905
8.775,-6.225,-5.880
8.778,-6.175,-5.870
8.781,-6.170,-5.850
8.783,-6.140,-5.820
8.786,-6.115,-5.785
8.789,-6.100,-5.770
8.792,-6.085,-5.765
8.794,-6.105,-5.765
8.797,-6.125,-5.790
8.800,-6.140,-5.785
8.803,-6.160,-5.805
8.806,-6.145,-5.775
8.808,-6.135,-5.760
8.811,-6.130,-5.735
8.814,-6.120,-5.725
8.817,-6.105,-5.705
8.819,-6.080,-5.695
8.822,-6.075,-5.675
8.825,-6.075,-5.675
8.828,-6.075,-5.680
8.831,-6.105,-5.680
8.833,-6.115,-5.715
8.836,-6.110,-5.720
8.839,-6.130,-5.710
8.842,-6.110,-5.705
8.844,-6.105,-5.680
8.847,-6.105,-5.650
8.850,-6.095,-5.620
8.853,-6.080,-5.605
8.856,-6.065,-5.615
8.858,-6.055,-5.645
8.861,-6.075,-5.660
8.864,-6.115,-5.685
8.867,-6.145,-5.705
8.869,-6.165,-5.695
8.872,-6.185,-5.685
8.875,-6.185,-5.665
8.878,-6.155,-5.640
8.881,-6.115,-5.620
8.883,-6.090,-5.625
8.886,-6.090,-5.635
8.889,-6.115,-5.645
8.892,-6.150,-5.660
8.894,-6.170,-5.690
8.897,-6.175,-5.695
8.900,-6.185,-5.700
8.903,-6.155,-5.700
8.906,-6.135,-5.700
8.908,-6.120,-5.680
8.911,-6.120,-5.665
8.914,-6.125,-5.655
8.917,-6.130,-5.660
8.919,-6.160,-5.675
8.922,-6.165,-5.690
8.925,-6.185,-5.745
8.928,-6.200,-5.750
8.931,-6.185,-5.765
8.933,-6.170,-5.750
8.936,-6.160,-5.710
8.939,-6.145,-5.685
8.942,-6.145,-5.635
8.944,-6.145,-5.630
8.947,-6.145,-5.620
8.950,-6.160,-5.610
8.953,-6.160,-5.635
8.956,-6.160,-5.655
8.958,-6.180,-5.695
8.961,-6.195,-5.715
8.964,-6.200,-5.745
8.967,-6.190,-5.735
8.969,-6.180,-5.720
8.972,-6.185,-5.695
8.975,-6.165,-5.690
8.978,-6.160,-5.640
8.981,-6.175,-5.645
8.983,-6.175,-5.650
8.986,-6.180,-5.695
8.989,-6.180,-5.695
8.992,-6.220,-5.705
8.994,-6.235,-5.735
8.997,-6.250,-5.745
9.000,-6.270,-5.745
9.003,-6.275,-5.725
9.006,-6.245,-5.720
9.008,-6.195,-5.670
9.011,-6.160,-5.660
9.014,-6.140,-5.665
9.017,-6.155,-5.660
9.019,-6.180,-5.680
9.022,-6.210,-5.680
9.025,-6.235,-5.665
9.028,-6.230,-5.660
9.031,-6.235,-5.655
9.033,-6.215,-5.645
9.036,-6.225,-5.660
9.039,-6.235,-5.675
9.042,-6.245,-5.670
9.044,-6.245,-5.670
9.047,-6.215,-5.655
9.050,-6.205,-5.630
9.053,-6.195,-5.620
9.056,-6.190,-5.635
9.058,-6.190,-5.640
9.061,-6.210,-5.655
9.064,-6.230,-5.670
9.067,-6.230,-5.690
9.069,-6.245,-5.680
9.072,-6.265,-5.695
9.075,-6.250,-5.700
9.078,-6.225,-5.685
9.081,-6.220,-5.700
9.083,-6.215,-5.715
9.086,-6.220,-5.695
9.089,-6.220,-5.700
9.092,-6.220,-5.670
9.094,-6.195,-5.665
9.097,-6.195,-5.645
9.100,-6.180,-5.665
9.103,-6.185,-5.680
9.106,-6.185,-5.720
9.108,-6.190,-5.750
9.111,-6.190,-5.765
9.114,-6.180,-5.760
9.117,-6.180,-5.740
9.119,-6.135,-5.705
9.122,-6.145,-5.700
9.125,-6.135,-5.680
9.128,-6.105,-5.705
9.131,-6.090,-5.720
9.133,-6.075,-5.720
9.136,-6.075,-5.705
9.139,-6.065,-5.680
9.142,-6.065,-5.645
9.144,-6.065,-5.620
9.147,-6.085,-5.615
9.150,-6.095,-5.625
9.153,-6.115,-5.635
9.156,-6.130,-5.665
9.158,-6.130,-5.695
9.161,-6.145,-5.705
9.164,-6.130,-5.710
9.167,-6.110,-5.685
9.169,-6.080,-5.625
9.172,-6.060,-5.575
9.175,-6.055,-5.530
9.178,-6.060,-5.480
9.181,-6.090,-5.505
9.183,-6.140,-5.510
9.186,-6.180,-5.560
9.189,-6.210,-5.610
9.192,-6.230,-5.615
9.194,-6.230,-5.660
9.197,-6.250,-5.675
9.200,-6.275,-5.680
9.203,-6.280,-5.685
9.206,-6.285,-5.690
9.208,-6.305,-5.670
9.211,-6.315,-5.655
9.214,-6.310,-5.665
9.217,-6.320,-5.645
9.219,-6.310,-5.640
9.222,-6.315,-5.660
9.225,-6.320,-5.700
9.228,-6.300,-5.700
9.231,-6.295,-5.720
9.233,-6.305,-5.730
9.236,-6.330,-5.735
9.239,-6.345,-5.715
9.242,-6.365,-5.710
9.244,-6.365,-5.705
9.247,-6.360,-5.700
9.250,-6.310,-5.700
9.253,-6.300,-5.695
9.256,-6.285,-5.730
9.258,-6.325,-5.710
9.261,-6.320,-5.710
9.264,-6.345,-5.710
9.267,-6.340,-5.745
9.269,-6.350,-5.740
9.272,-6.355,-5.755
9.275,-6.345,-5.740
9.278,-6.325,-5.730
9.281,-6.305,-5.715
9.283,-6.275,-5.690
9.286,-6.270,-5.675
9.289,-6.300,-5.695
9.292,-6.330,-5.730
9.294,-6.365,-5.770
9.297,-6.405,-5.820
9.300,-6.445,-5.880
9.303,-6.450,-5.945
9.306,-6.430,-6.000
9.308,-6.360,-6.080
9.311,-6.245,-6.160
9.314,-6.080,-6.265
9.317,-5.935,-6.390
9.319,-5.805,-6.525
9.322,-5.740,-6.640
9.325,-5.680,-6.670
9.328,-5.685,-6.665
9.331,-5.705,-6.555
9.333,-5.700,-6.430
9.336,-5.670,-6.265
9.339,-5.550,-6.110
9.342,-5.390,-5.940
9.344,-5.220,-5.760
9.347,-5.080,-5.535
9.350,-5.070,-5.250
9.353,-5.160,-4.970
9.356,-5.465,-4.765
9.358,-5.885,-4.705
9.361,-6.300,-4.790
9.364,-6.680,-5.025
9.367,-6.965,-5.275
9.369,-7.150,-5.520
9.372,-7.285,-5.645
9.375,-7.335,-5.730
9.378,-7.365,-5.760
9.381,-7.360,-5.785
9.383,-7.360,-5.835
9.386,-7.330,-5.880
9.389,-7.335,-5.935
9.392,-7.325,-5.950
9.394,-7.335,-5.960
9.397,-7.350,-5.935
9.400,-7.380,-5.940
9.403,-7.380,-5.930
9.406,-7.355,-5.945
9.408,-7.310,-5.945
9.411,-7.210,-5.950
9.414,-7.075,-5.965
9.417,-6.935,-5.935
9.419,-6.805,-5.905
9.422,-6.695,-5.855
9.425,-6.630,-5.790
9.428,-6.550,-5.740
9.431,-6.515,-5.720
9.433,-6.505,-5.705
9.436,-6.505,-5.700
9.439,-6.495,-5.715
9.442,-6.500,-5.715
9.444,-6.470,-5.735
9.447,-6.435,-5.725
9.450,-6.410,-5.705
9.453,-6.385,-5.690
9.456,-6.385,-5.695
9.458,-6.390,-5.680
9.461,-6.410,-5.695
9.464,-6.425,-5.710
9.467,-6.420,-5.715
9.469,-6.445,-5.715
9.472,-6.465,-5.720
9.475,-6.500,-5.715
9.478,-6.485,-5.720
9.481,-6.495,-5.750
9.483,-6.455,-5.765
9.486,-6.440,-5.770
9.489,-6.425,-5.780
9.492,-6.425,-5.780
9.494,-6.465,-5.790
9.497,-6.480,-5.790
9.500,-6.480,-5.795
9.503,-6.505,-5.805
9.506,-6.510,-5.815
9.508,-6.505,-5.830
9.511,-6.500,-5.850
9.514,-6.485,-5.865
9.517,-6.500,-5.850
9.519,-6.530,-5.880
9.522,-6.550,-5.910
9.525,-6.560,-5.930
9.528,-6.565,-5.965
9.531,-6.575,-5.990
9.533,-6.585,-5.980
9.536,-6.600,-5.980
9.539,-6.620,-5.965
9.542,-6.645,-5.995
9.544,-6.645,-5.985
9.547,-6.660,-6.010
9.550,-6.645,-6.030
9.553,-6.620,-6.030
9.556,-6.635,-6.045
9.558,-6.620,-6.070
9.561,-6.615,-6.110
9.564,-6.615,-6.120
9.567,-6.655,-6.120
9.569,-6.660,-6.120
9.572,-6.670,-6.115
9.575,-6.665,-6.110
9.578,-6.655,-6.095
9.581,-6.640,-6.105
9.583,-6.615,-6.115
9.586,-6.610,-6.110
9.589,-6.615,-6.120
9.592,-6.625,-6.120
9.594,-6.620,-6.120
9.597,-6.630,-6.135
9.600,-6.625,-6.130
9.603,-6.635,-6.120
9.606,-6.640,-6.115
9.608,-6.625,-6.080
9.611,-6.595,-6.060
9.614,-6.545,-6.020
9.617,-6.495,-6.020
9.619,-6.460,-6.005
9.622,-6.435,-6.035
9.625,-6.435,-6.010
9.628,-6.450,-6.020
9.631,-6.480,-6.030
9.633,-6.515,-6.005
9.636,-6.505,-6.000
9.639,-6.475,-5.985
9.642,-6.435,-5.950
9.644,-6.375,-5.930
9.647,-6.340,-5.895
9.650,-6.325,-5.870
9.653,-6.295,-5.860
9.656,-6.290,-5.840
9.658,-6.295,-5.820
9.661,-6.280,-5.790
9.664,-6.285,-5.765
9.667,-6.280,-5.775
9.669,-6.295,-5.770
9.672,-6.305,-5.780
9.675,-6.325,-5.800
9.678,-6.335,-5.805
9.681,-6.330,-5.805
9.683,-6.325,-5.790
9.686,-6.310,-5.755
9.689,-6.295,-5.725
9.692,-6.305,-5.700
9.694,-6.305,-5.705
9.697,-6.295,-5.725
9.700,-6.300,-5.755
9.703,-6.305,-5.765
9.706,-6.305,-5.760
9.708,-6.320,-5.745
9.711,-6.315,-5.720
9.714,-6.295,-5.720
9.717,-6.285,-5.705
9.719,-6.270,-5.695
9.722,-6.280,-5.710
9.725,-6.265,-5.715
9.728,-6.275,-5.735
9.731,-6.295,-5.745
9.733,-6.280,-5.755
9.736,-6.305,-5.770
9.739,-6.320,-5.765
9.742,-6.330,-5.765
9.744,-6.295,-5.750
9.747,-6.285,-5.750
9.750,-6.305,-5.730
9.753,-6.295,-5.720
9.756,-6.285,-5.710
9.758,-6.295,-5.700
9.761,-6.325,-5.710
9.764,-6.355,-5.730
9.767,-6.380,-5.735
9.769,-6.365,-5.765
9.772,-6.365,-5.760
9.775,-6.360,-5.780
9.778,-6.325,-5.765
9.781,-6.310,-5.755
9.783,-6.295,-5.730
9.786,-6.300,-5.765
9.789,-6.310,-5.735
9.792,-6.340,-5.740
9.794,-6.355,-5.730
9.797,-6.370,-5.735
9.800,-6.360,-5.745
9.803,-6.355,-5.765
9.806,-6.350,-5.785
9.808,-6.325,-5.770
9.811,-6.325,-5.755
9.814,-6.300,-5.730
9.817,-6.320,-5.740
9.819,-6.310,-5.720
9.822,-6.305,-5.735
9.825,-6.285,-5.725
9.828,-6.270,-5.735
9.831,-6.270,-5.740
9.833,-6.300,-5.745
9.836,-6.320,-5.755
9.839,-6.360,-5.765
9.842,-6.375,-5.795
9.844,-6.375,-5.780
9.847,-6.350,-5.795
9.850,-6.345,-5.770
9.853,-6.325,-5.765
9.856,-6.295,-5.735
9.858,-6.315,-5.725
9.861,-6.305,-5.710
9.864,-6.285,-5.735
9.867,-6.290,-5.735
9.869,-6.285,-5.750
9.872,-6.300,-5.780
9.875,-6.310,-5.775
9.878,-6.320,-5.780
9.881,-6.310,-5.775
9.883,-6.315,-5.765
9.886,-6.315,-5.770
9.889,-6.300,-5.775
9.892,-6.305,-5.760
9.894,-6.305,-5.765
9.897,-6.295,-5.760
9.900,-6.290,-5.735
9.903,-6.280,-5.750
9.906,-6.295,-5.755
9.908,-6.305,-5.740
9.911,-6.300,-5.730
9.914,-6.305,-5.715
9.917,-6.315,-5.710
9.919,-6.290,-5.700
9.922,-6.295,-5.710
9.925,-6.270,-5.755
9.928,-6.270,-5.765
9.931,-6.275,-5.775
9.933,-6.280,-5.780
9.936,-6.280,-5.765
9.939,-6.280,-5.760
9.942,-6.290,-5.740
9.944,-6.280,-5.740
9.947,-6.255,-5.720
9.950,-6.250,-5.740
9.953,-6.230,-5.730
9.956,-6.245,-5.745
9.958,-6.255,-5.735
9.961,-6.280,-5.730
9.964,-6.295,-5.730
9.967,-6.300,-5.750
9.969,-6.280,-5.750
9.972,-6.265,-5.765
9.975,-6.235,-5.765
9.978,-6.215,-5.750
9.981,-6.205,-5.745
9.983,-6.195,-5.735
9.986,-6.170,-5.750
9.989,-6.175,-5.780
9.992,-6.175,-5.805
9.994,-6.160,-5.815
9.997,-6.155,-5.810
10.000,-6.135,-5.795
10.003,-6.100,-5.785
10.006,-6.100,-5.765
10.008,-6.080,-5.745
10.011,-6.075,-5.745
10.014,-6.085,-5.740
10.017,-6.085,-5.725
10.019,-6.115,-5.735
10.022,-6.150,-5.730
10.025,-6.145,-5.720
10.028,-6.155,-5.730
10.031,-6.170,-5.715
10.033,-6.135,-5.715
10.036,-6.090,-5.680
10.039,-6.060,-5.655
10.042,-6.060,-5.630
10.044,-6.070,-5.620
10.047,-6.085,-5.615
10.050,-6.110,-5.615
10.053,-6.125,-5.630
10.056,-6.165,-5.655
10.058,-6.215,-5.690
10.061,-6.240,-5.735
10.064,-6.235,-5.770
10.067,-6.255,-5.795
10.069,-6.265,-5.810
10.072,-6.280,-5.770
10.075,-6.315,-5.745
10.078,-6.310,-5.710
10.081,-6.325,-5.710
10.083,-6.320,-5.705
10.086,-6.310,-5.715
10.089,-6.305,-5.755
10.092,-6.295,-5.755
10.094,-6.280,-5.790
10.097,-6.300,-5.795
10.100,-6.300,-5.795
10.103,-6.315,-5.790
10.106,-6.335,-5.795
10.108,-6.335,-5.785
10.111,-6.315,-5.755
10.114,-6.300,-5.755
10.117,-6.270,-5.750
10.119,-6.260,-5.755
10.122,-6.265,-5.755
10.125,-6.265,-5.750
10.128,-6.305,-5.765
10.131,-6.325,-5.770
10.133,-6.380,-5.785
10.136,-6.385,-5.800
10.139,-6.390,-5.800
10.142,-6.365,-5.795
10.144,-6.345,-5.755
10.147,-6.325,-5.775
10.150,-6.290,-5.760
10.153,-6.280,-5.765
10.156,-6.280,-5.765
10.158,-6.295,-5.800
10.161,-6.310,-5.845
10.164,-6.335,-5.890
10.167,-6.355,-5.940
10.169,-6.345,-5.990
10.172,-6.320,-6.040
10.175,-6.245,-6.115
10.178,-6.120,-6.205
10.181,-5.960,-6.350
10.183,-5.790,-6.510
10.186,-5.640,-6.630
10.189,-5.580,-6.670
10.192,-5.575,-6.665
10.194,-5.630,-6.580
10.197,-5.635,-6.435
10.200,-5.595,-6.290
10.203,-5.440,-6.100
10.206,-5.260,-5.905
10.208,-5.095,-5.650
10.211,-5.005,-5.325
10.214,-5.080,-5.055
10.217,-5.340,-4.825
10.219,-5.740,-4.760
10.222,-6.170,-4.825
10.225,-6.565,-5.020
10.228,-6.855,-5.245
10.231,-7.020,-5.460
10.233,-7.095,-5.630
10.236,-7.135,-5.710
10.239,-7.190,-5.765
10.242,-7.240,-5.790
10.244,-7.285,-5.825
10.247,-7.340,-5.890
10.250,-7.375,-5.925
10.253,-7.380,-5.950
10.256,-7.375,-5.950
10.258,-7.375,-5.970
10.261,-7.385,-5.980
10.264,-7.405,-5.990
10.267,-7.410,-5.990
10.269,-7.395,-5.985
10.272,-7.350,-6.010
10.275,-7.295,-6.030
10.278,-7.215,-6.035
10.281,-7.125,-6.000
10.283,-7.010,-5.995
10.286,-6.855,-5.930
10.289,-6.745,-5.865
10.292,-6.635,-5.815
10.294,-6.535,-5.770
10.297,-6.485,-5.750
10.300,-6.475,-5.760
10.303,-6.460,-5.735
10.306,-6.440,-5.730
10.308,-6.405,-5.720
10.311,-6.370,-5.725
10.314,-6.345,-5.730
10.317,-6.325,-5.710
10.319,-6.320,-5.700
10.322,-6.305,-5.705
10.325,-6.330,-5.715
10.328,-6.360,-5.745
10.331,-6.390,-5.780
10.333,-6.400,-5.780
10.336,-6.390,-5.800
10.339,-6.400,-5.805
10.342,-6.355,-5.810
10.344,-6.365,-5.795
10.347,-6.365,-5.795
10.350,-6.355,-5.785
10.353,-6.350,-5.770
10.356,-6.370,-5.775
10.358,-6.370,-5.795
10.361,-6.385,-5.800
10.364,-6.390,-5.835
10.367,-6.395,-5.850
10.369,-6.400,-5.875
10.372,-6.395,-5.865
10.375,-6.405,-5.850
10.378,-6.405,-5.845
10.381,-6.425,-5.870
10.383,-6.420,-5.880
10.386,-6.440,-5.925
10.389,-6.445,-5.965
10.392,-6.465,-5.985
10.394,-6.465,-6.000
10.397,-6.470,-6.035
10.400,-6.485,-6.050
10.403,-6.495,-6.065
10.406,-6.520,-6.055
10.408,-6.540,-6.050
10.411,-6.555,-6.045
10.414,-6.570,-6.050
10.417,-6.565,-6.030
10.419,-6.550,-6.040
10.422,-6.555,-6.060
10.425,-6.555,-6.075
10.428,-6.550,-6.060
10.431,-6.550,-6.075
10.433,-6.555,-6.065
10.436,-6.565,-6.100
10.439,-6.580,-6.115
10.442,-6.590,-6.120
10.444,-6.570,-6.125
10.447,-6.555,-6.135
10.450,-6.550,-6.140
10.453,-6.530,-6.135
10.456,-6.540,-6.120
10.458,-6.565,-6.125
10.461,-6.570,-6.130
10.464,-6.565,-6.135
10.467,-6.560,-6.125
10.469,-6.540,-6.135
10.472,-6.535,-6.130
10.475,-6.510,-6.125
10.478,-6.475,-6.125
10.481,-6.455,-6.115
10.483,-6.425,-6.115
10.486,-6.410,-6.080
10.489,-6.405,-6.075
10.492,-6.400,-6.020
10.494,-6.395,-6.010
10.497,-6.400,-6.000
10.500,-6.380,-6.005
10.503,-6.340,-6.015
10.506,-6.330,-6.005
10.508,-6.325,-5.990
10.511,-6.305,-5.980
10.514,-6.290,-5.945
10.517,-6.270,-5.925
10.519,-6.240,-5.905
10.522,-6.230,-5.905
10.525,-6.220,-5.900
10.528,-6.225,-5.895
10.531,-6.250,-5.880
10.533,-6.250,-5.885
10.536,-6.235,-5.850
10.539,-6.230,-5.835
10.542,-6.225,-5.830
10.544,-6.210,-5.825
10.547,-6.185,-5.820
10.550,-6.155,-5.800
10.553,-6.135,-5.790
10.556,-6.160,-5.760
10.558,-6.185,-5.735
10.561,-6.185,-5.745
10.564,-6.225,-5.725
10.567,-6.230,-5.740
10.569,-6.220,-5.740
10.572,-6.220,-5.735
10.575,-6.200,-5.740
10.578,-6.180,-5.750
10.581,-6.160,-5.755
10.583,-6.150,-5.735
10.586,-6.150,-5.750
10.589,-6.160,-5.730
10.592,-6.185,-5.700
10.594,-6.225,-5.720
10.597,-6.235,-5.725
10.600,-6.235,-5.760
10.603,-6.235,-5.770
10.606,-6.235,-5.770
10.608,-6.225,-5.780
10.611,-6.195,-5.800
10.614,-6.195,-5.765
10.617,-6.195,-5.750
10.619,-6.180,-5.735
10.622,-6.195,-5.725
10.625,-6.215,-5.725
10.628,-6.245,-5.740
10.631,-6.280,-5.740
10.633,-6.305,-5.790
10.636,-6.300,-5.790
10.639,-6.280,-5.790
10.642,-6.260,-5.775
10.644,-6.235,-5.770
10.647,-6.225,-5.760
10.650,-6.220,-5.755
10.653,-6.225,-5.760
10.656,-6.230,-5.785
10.658,-6.230,-5.785
10.661,-6.230,-5.805
10.664,-6.235,-5.805
10.667,-6.230,-5.810
10.669,-6.235,-5.785
10.672,-6.250,-5.770
10.675,-6.255,-5.760
10.678,-6.250,-5.745
10.681,-6.250,-5.755
10.683,-6.230,-5.780
10.686,-6.225,-5.785
10.689,-6.225,-5.785
10.692,-6.205,-5.770
10.694,-6.200,-5.755
10.697,-6.210,-5.775
10.700,-6.215,-5.780
10.703,-6.225,-5.795
10.706,-6.235,-5.785
10.708,-6.240,-5.775
10.711,-6.240,-5.750
10.714,-6.240,-5.730
10.717,-6.215,-5.725
10.719,-6.210,-5.735
10.722,-6.235,-5.745
10.725,-6.230,-5.750
10.728,-6.230,-5.770
10.731,-6.215,-5.775
10.733,-6.220,-5.780
10.736,-6.215,-5.780
10.739,-6.215,-5.785
10.742,-6.225,-5.800
10.744,-6.225,-5.780
10.747,-6.225,-5.775
10.750,-6.200,-5.760
10.753,-6.175,-5.740
10.756,-6.170,-5.745
10.758,-6.195,-5.735
10.761,-6.215,-5.725
10.764,-6.255,-5.740
10.767,-6.255,-5.710
10.769,-6.250,-5.750
10.772,-6.245,-5.745
10.775,-6.250,-5.750
10.778,-6.215,-5.765
10.781,-6.195,-5.775
10.783,-6.180,-5.775
10.786,-6.175,-5.765
10.789,-6.170,-5.760
10.792,-6.175,-5.760
10.794,-6.195,-5.765
10.797,-6.195,-5.765
10.800,-6.200,-5.790
10.803,-6.190,-5.795
10.806,-6.195,-5.770
10.808,-6.190,-5.760
10.811,-6.160,-5.750
10.814,-6.160,-5.740
10.817,-6.135,-5.740
10.819,-6.120,-5.770
10.822,-6.130,-5.795
10.825,-6.120,-5.830
10.828,-6.125,-5.835
10.831,-6.100,-5.820
10.833,-6.095,-5.800
10.836,-6.060,-5.780
10.839,-6.045,-5.745
10.842,-6.005,-5.735
10.844,-5.980,-5.725
10.847,-5.985,-5.700
10.850,-6.015,-5.675
10.853,-6.040,-5.680
10.856,-6.065,-5.715
10.858,-6.085,-5.740
10.861,-6.090,-5.775
10.864,-6.110,-5.800
10.867,-6.110,-5.785
10.869,-6.115,-5.775
10.872,-6.095,-5.735
10.875,-6.065,-5.690
10.878,-6.040,-5.655
10.881,-6.005,-5.615
10.883,-5.980,-5.560
10.886,-5.995,-5.545
10.889,-6.040,-5.550
10.892,-6.080,-5.545
10.894,-6.100,-5.570
10.897,-6.120,-5.620
10.900,-6.150,-5.670
10.903,-6.160,-5.710
10.906,-6.170,-5.710
10.908,-6.195,-5.685
10.911,-6.200,-5.675
10.914,-6.205,-5.675
10.917,-6.195,-5.685
10.919,-6.185,-5.695
10.922,-6.175,-5.715
10.925,-6.185,-5.730
10.928,-6.210,-5.765
10.931,-6.245,-5.765
10.933,-6.280,-5.785
10.936,-6.305,-5.770
10.939,-6.320,-5.740
10.942,-6.295,-5.710
10.944,-6.270,-5.675
10.947,-6.245,-5.670
10.950,-6.230,-5.695
10.953,-6.225,-5.700
10.956,-6.250,-5.720
10.958,-6.250,-5.755
10.961,-6.250,-5.760
10.964,-6.255,-5.760
10.967,-6.260,-5.760
10.969,-6.260,-5.755
10.972,-6.270,-5.745
10.975,-6.285,-5.745
10.978,-6.280,-5.725
10.981,-6.275,-5.750
10.983,-6.265,-5.740
10.986,-6.215,-5.725
10.989,-6.215,-5.720
10.992,-6.200,-5.725
10.994,-6.205,-5.745
10.997,-6.230,-5.790
11.000,-6.245,-5.810
11.003,-6.270,-5.815
11.006,-6.300,-5.845
11.008,-6.290,-5.840
11.011,-6.290,-5.885
11.014,-6.240,-5.960
11.017,-6.165,-6.000
11.019,-6.050,-6.120
11.022,-5.890,-6.215
11.025,-5.730,-6.335
11.028,-5.570,-6.460
11.031,-5.470,-6.535
11.033,-5.435,-6.545
11.036,-5.455,-6.495
11.039,-5.505,-6.390
11.042,-5.505,-6.250
11.044,-5.455,-6.100
11.047,-5.345,-5.925
11.050,-5.185,-5.750
11.053,-5.015,-5.535
11.056,-4.935,-5.280
11.058,-4.940,-5.020
11.061,-5.115,-4.795
11.064,-5.465,-4.645
11.067,-5.885,-4.645
11.069,-6.325,-4.785
11.072,-6.695,-5.020
11.075,-6.955,-5.280
11.078,-7.095,-5.515
11.081,-7.170,-5.680
11.083,-7.210,-5.775
11.086,-7.230,-5.825
11.089,-7.265,-5.875
11.092,-7.300,-5.920
11.094,-7.310,-5.955
11.097,-7.335,-5.985
11.100,-7.325,-5.990
11.103,-7.295,-5.980
11.106,-7.280,-5.965
11.108,-7.265,-5.940
11.111,-7.235,-5.940
11.114,-7.205,-5.955
11.117,-7.175,-5.955
11.119,-7.145,-5.955
11.122,-7.080,-5.970
11.125,-6.975,-5.945
11.128,-6.835,-5.900
11.131,-6.685,-5.865
11.133,-6.570,-5.810
11.136,-6.475,-5.780
11.139,-6.420,-5.725
11.142,-6.370,-5.685
11.144,-6.350,-5.665
11.147,-6.355,-5.645
11.150,-6.350,-5.655
11.153,-6.345,-5.665
11.156,-6.360,-5.690
11.158,-6.360,-5.715
11.161,-6.365,-5.750
11.164,-6.350,-5.740
11.167,-6.340,-5.745
11.169,-6.330,-5.730
11.172,-6.325,-5.685
11.175,-6.330,-5.650
11.178,-6.290,-5.615
11.181,-6.285,-5.625
11.183,-6.290,-5.645
11.186,-6.295,-5.680
11.189,-6.310,-5.705
11.192,-6.320,-5.740
11.194,-6.330,-5.765
11.197,-6.340,-5.765
11.200,-6.345,-5.770
11.203,-6.340,-5.755
11.206,-6.345,-5.750
11.208,-6.345,-5.760
11.211,-6.335,-5.765
11.214,-6.350,-5.795
11.217,-6.330,-5.805
11.219,-6.345,-5.845
11.222,-6.390,-5.890
11.225,-6.395,-5.910
11.228,-6.405,-5.920
11.231,-6.420,-5.910
11.233,-6.425,-5.910
11.236,-6.435,-5.925
11.239,-6.455,-5.950
11.242,-6.480,-5.980
11.244,-6.500,-5.990
11.247,-6.500,-6.000
11.250,-6.485,-6.000
11.253,-6.475,-6.005
11.256,-6.450,-6.000
11.258,-6.465,-6.035
11.261,-6.480,-6.025
11.264,-6.495,-6.050
11.267,-6.505,-6.070
11.269,-6.535,-6.075
11.272,-6.565,-6.095
11.275,-6.570,-6.090
11.278,-6.555,-6.095
11.281,-6.535,-6.100
11.283,-6.530,-6.075
11.286,-6.510,-6.075
11.289,-6.505,-6.085
11.292,-6.480,-6.110
11.294,-6.500,-6.115
11.297,-6.515,-6.120
11.300,-6.525,-6.140
11.303,-6.535,-6.145
11.306,-6.560,-6.135
11.308,-6.540,-6.145
11.311,-6.520,-6.105
11.314,-6.500,-6.085
11.317,-6.470,-6.045
11.319,-6.425,-6.020
11.322,-6.415,-6.020
11.325,-6.415,-6.015
11.328,-6.405,-6.015
11.331,-6.400,-6.010
11.333,-6.405,-5.995
11.336,-6.395,-6.005
11.339,-6.375,-6.005
11.342,-6.350,-5.995
11.344,-6.325,-5.975
11.347,-6.310,-5.930
11.350,-6.270,-5.910
11.353,-6.255,-5.870
11.356,-6.230,-5.840
11.358,-6.210,-5.825
11.361,-6.190,-5.830
11.364,-6.190,-5.820
11.367,-6.200,-5.855
11.369,-6.210,-5.840
11.372,-6.220,-5.835
11.375,-6.225,-5.810
11.378,-6.190,-5.765
11.381,-6.185,-5.745
11.383,-6.175,-5.710
11.386,-6.150,-5.695
11.389,-6.140,-5.715
11.392,-6.160,-5.750
11.394,-6.165,-5.775
11.397,-6.185,-5.780
11.400,-6.190,-5.760
11.403,-6.185,-5.755
11.406,-6.175,-5.730
11.408,-6.155,-5.720
11.411,-6.145,-5.690
11.414,-6.145,-5.680
11.417,-6.145,-5.670
11.419,-6.145,-5.680
11.422,-6.160,-5.695
11.425,-6.170,-5.700
11.428,-6.175,-5.695
11.431,-6.155,-5.685
11.433,-6.150,-5.690
11.436,-6.155,-5.685
11.439,-6.175,-5.705
11.442,-6.175,-5.695
11.444,-6.185,-5.690
11.447,-6.175,-5.680
11.450,-6.190,-5.675
11.453,-6.170,-5.675
11.456,-6.175,-5.680
11.458,-6.170,-5.685
11.461,-6.165,-5.690
11.464,-6.190,-5.715
11.467,-6.185,-5.710
11.469,-6.200,-5.710
11.472,-6.200,-5.685
11.475,-6.185,-5.680
11.478,-6.165,-5.665
11.481,-6.175,-5.660
11.483,-6.165,-5.655
11.486,-6.170,-5.660
11.489,-6.155,-5.650
11.492,-6.165,-5.670
11.494,-6.190,-5.710
11.497,-6.185,-5.725
11.500,-6.200,-5.740
11.503,-6.195,-5.710
11.506,-6.195,-5.655
11.508,-6.175,-5.610
11.511,-6.170,-5.610
11.514,-6.155,-5.635
11.517,-6.145,-5.695
11.519,-6.125,-5.735
11.522,-6.120,-5.750
11.525,-6.115,-5.750
11.528,-6.110,-5.735
11.531,-6.110,-5.735
11.533,-6.125,-5.750
11.536,-6.145,-5.750
11.539,-6.165,-5.775
11.542,-6.175,-5.780
11.544,-6.175,-5.770
11.547,-6.170,-5.735
11.550,-6.150,-5.705
11.553,-6.130,-5.665
11.556,-6.115,-5.645
11.558,-6.100,-5.630
11.561,-6.105,-5.635
11.564,-6.135,-5.680
11.567,-6.160,-5.710
11.569,-6.180,-5.745
11.572,-6.180,-5.735
11.575,-6.175,-5.725
11.578,-6.155,-5.720
11.581,-6.135,-5.715
11.583,-6.115,-5.705
11.586,-6.100,-5.700
11.589,-6.085,-5.690
11.592,-6.110,-5.695
11.594,-6.105,-5.695
11.597,-6.110,-5.705
11.600,-6.115,-5.725
11.603,-6.130,-5.750
11.606,-6.125,-5.745
11.608,-6.120,-5.735
11.611,-6.105,-5.725
11.614,-6.095,-5.720
11.617,-6.070,-5.730
11.619,-6.075,-5.710
11.622,-6.080,-5.715
11.625,-6.080,-5.695
11.628,-6.095,-5.675
11.631,-6.085,-5.680
11.633,-6.080,-5.685
11.636,-6.095,-5.715
11.639,-6.070,-5.720
11.642,-6.065,-5.700
11.644,-6.050,-5.700
11.647,-6.020,-5.700
11.650,-6.015,-5.695
11.653,-5.990,-5.690
11.656,-5.985,-5.730
11.658,-5.960,-5.750
11.661,-5.965,-5.775
11.664,-5.960,-5.790
11.667,-5.980,-5.815
11.669,-5.965,-5.800
11.672,-5.955,-5.800
11.675,-5.945,-5.785
11.678,-5.915,-5.770
11.681,-5.905,-5.760
11.683,-5.930,-5.755
11.686,-5.955,-5.725
11.689,-5.975,-5.695
11.692,-5.980,-5.675
11.694,-5.990,-5.660
11.697,-5.995,-5.685
11.700,-6.015,-5.710
11.703,-6.015,-5.750
11.706,-6.015,-5.745
11.708,-6.005,-5.755
11.711,-5.965,-5.735
11.714,-5.950,-5.700
11.717,-5.915,-5.655
11.719,-5.885,-5.635
11.722,-5.870,-5.595
11.725,-5.905,-5.565
11.728,-5.915,-5.585
11.731,-5.950,-5.625
11.733,-5.990,-5.675
11.736,-6.045,-5.720
11.739,-6.080,-5.760
11.742,-6.060,-5.755
11.744,-6.065,-5.755
11.747,-6.030,-5.740
11.750,-6.020,-5.705
11.753,-6.010,-5.685
11.756,-6.035,-5.680
11.758,-6.055,-5.705
11.761,-6.080,-5.745
11.764,-6.135,-5.780
11.767,-6.155,-5.790
11.769,-6.175,-5.795
11.772,-6.190,-5.785
11.775,-6.170,-5.790
11.778,-6.135,-5.745
11.781,-6.125,-5.720
11.783,-6.120,-5.710
11.786,-6.105,-5.710
11.789,-6.120,-5.730
11.792,-6.120,-5.770
11.794,-6.150,-5.790
11.797,-6.150,-5.800
11.800,-6.155,-5.800
11.803,-6.175,-5.780
11.806,-6.180,-5.770
11.808,-6.185,-5.740
11.811,-6.185,-5.725
11.814,-6.155,-5.730
11.817,-6.145,-5.735
11.819,-6.125,-5.750
11.822,-6.115,-5.770
11.825,-6.115,-5.770
11.828,-6.120,-5.775
11.831,-6.125,-5.770
11.833,-6.150,-5.790
11.836,-6.155,-5.790
11.839,-6.160,-5.805
11.842,-6.175,-5.835
11.844,-6.170,-5.840
11.847,-6.180,-5.845
11.850,-6.175,-5.880
11.853,-6.175,-5.900
11.856,-6.170,-5.990
11.858,-6.150,-6.075
11.861,-6.070,-6.200
11.864,-5.965,-6.330
11.867,-5.845,-6.455
11.869,-5.735,-6.565
11.872,-5.625,-6.655
11.875,-5.560,-6.705
11.878,-5.535,-6.690
11.881,-5.535,-6.615
11.883,-5.540,-6.480
11.886,-5.515,-6.365
11.889,-5.390,-6.225
11.892,-5.250,-6.080
11.894,-5.075,-5.910
11.897,-4.935,-5.665
11.900,-4.900,-5.370
11.903,-5.010,-5.085
11.906,-5.295,-4.865
11.908,-5.670,-4.770
11.911,-6.065,-4.825
11.914,-6.385,-5.005
11.917,-6.625,-5.210
11.919,-6.775,-5.420
11.922,-6.840,-5.585
11.925,-6.895,-5.680
11.928,-6.945,-5.745
11.931,-6.995,-5.805
11.933,-7.035,-5.875
11.936,-7.070,-5.915
11.939,-7.085,-5.955
11.942,-7.080,-5.965
11.944,-7.075,-5.915
11.947,-7.045,-5.890
11.950,-7.050,-5.855
11.953,-7.045,-5.850
11.956,-7.035,-5.875
11.958,-7.020,-5.890
11.961,-7.000,-5.935
11.964,-6.925,-5.960
11.967,-6.825,-5.985
11.969,-6.695,-5.965
11.972,-6.580,-5.935
11.975,-6.500,-5.880
11.978,-6.425,-5.825
11.981,-6.365,-5.765
11.983,-6.325,-5.745
11.986,-6.270,-5.705
11.989,-6.260,-5.695
11.992,-6.235,-5.700
11.994,-6.225,-5.715
11.997,-6.215,-5.755
12.000,-6.195,-5.775
12.003,-6.195,-5.780
12.006,-6.180,-5.790
12.008,-6.195,-5.780
12.011,-6.210,-5.770
12.014,-6.220,-5.745
12.017,-6.220,-5.720
12.019,-6.225,-5.715
12.022,-6.230,-5.740
12.025,-6.225,-5.765
12.028,-6.210,-5.785
12.031,-6.215,-5.800
12.033,-6.205,-5.825
12.036,-6.215,-5.840
12.039,-6.225,-5.835
12.042,-6.230,-5.845
12.044,-6.230,-5.835
12.047,-6.245,-5.845
12.050,-6.230,-5.840
12.053,-6.235,-5.860
12.056,-6.220,-5.875
12.058,-6.245,-5.910
12.061,-6.260,-5.950
12.064,-6.285,-5.945
12.067,-6.300,-5.965
12.069,-6.305,-5.980
12.072,-6.310,-5.980
12.075,-6.325,-5.995
12.078,-6.310,-6.005
12.081,-6.315,-6.015
12.083,-6.330,-6.015
12.086,-6.345,-6.020
12.089,-6.355,-6.020
12.092,-6.340,-6.010
12.094,-6.370,-6.015
12.097,-6.375,-6.035
12.100,-6.375,-6.075
12.103,-6.380,-6.095
12.106,-6.390,-6.105
12.108,-6.410,-6.100
12.111,-6.425,-6.105
12.114,-6.435,-6.095
12.117,-6.435,-6.100
12.119,-6.410,-6.105
12.122,-6.410,-6.140
12.125,-6.430,-6.160
12.128,-6.420,-6.190
12.131,-6.445,-6.195
12.133,-6.480,-6.180
12.136,-6.455,-6.195
12.139,-6.480,-6.170
12.142,-6.465,-6.165
12.144,-6.450,-6.155
12.147,-6.430,-6.155
12.150,-6.415,-6.140
12.153,-6.385,-6.150
12.156,-6.375,-6.145
12.158,-6.350,-6.145
12.161,-6.335,-6.160
12.164,-6.360,-6.165
12.167,-6.360,-6.160
12.169,-6.350,-6.165
12.172,-6.340,-6.150
12.175,-6.320,-6.140
12.178,-6.295,-6.125
12.181,-6.255,-6.120
12.183,-6.235,-6.115
12.186,-6.205,-6.100
12.189,-6.195,-6.115
12.192,-6.200,-6.065
12.194,-6.190,-6.030
12.197,-6.185,-5.985
12.200,-6.160,-5.960
12.203,-6.145,-5.945
12.206,-6.135,-5.940
12.208,-6.120,-5.950
12.211,-6.110,-5.925
12.214,-6.110,-5.930
12.217,-6.105,-5.920
12.219,-6.085,-5.900
12.222,-6.080,-5.885
12.225,-6.065,-5.870
12.228,-6.050,-5.890
12.231,-6.050,-5.880
12.233,-6.065,-5.890
12.236,-6.080,-5.890
12.239,-6.080,-5.875
12.242,-6.105,-5.840
12.244,-6.105,-5.830
12.247,-6.080,-5.800
12.250,-6.065,-5.815
12.253,-6.020,-5.805
12.256,-6.020,-5.825
12.258,-6.030,-5.820
12.261,-6.060,-5.790
12.264,-6.075,-5.760
12.267,-6.110,-5.740
12.269,-6.100,-5.750
12.272,-6.105,-5.760
12.275,-6.100,-5.775
12.278,-6.110,-5.785
12.281,-6.085,-5.785
12.283,-6.080,-5.820
12.286,-6.065,-5.800
12.289,-6.065,-5.785
12.292,-6.055,-5.765
12.294,-6.050,-5.770
12.297,-6.050,-5.780
12.300,-6.055,-5.775
12.303,-6.085,-5.795
12.306,-6.090,-5.820
12.308,-6.090,-5.805
12.311,-6.090,-5.790
12.314,-6.105,-5.805
12.317,-6.095,-5.790
12.319,-6.085,-5.780
12.322,-6.085,-5.790
12.325,-6.085,-5.800
12.328,-6.090,-5.785
12.331,-6.090,-5.795
12.333,-6.095,-5.805
12.336,-6.085,-5.800
12.339,-6.100,-5.815
12.342,-6.070,-5.825
12.344,-6.070,-5.800
12.347,-6.055,-5.790
12.350,-6.065,-5.790
12.353,-6.045,-5.800
12.356,-6.045,-5.815
12.358,-6.045,-5.825
12.361,-6.055,-5.815
12.364,-6.055,-5.850
12.367,-6.080,-5.835
12.369,-6.080,-5.830
12.372,-6.080,-5.830
12.375,-6.100,-5.840
12.378,-6.080,-5.810
12.381,-6.075,-5.805
12.383,-6.070,-5.780
12.386,-6.050,-5.770
12.389,-6.060,-5.765
12.392,-6.075,-5.775
12.394,-6.060,-5.785
12.397,-6.055,-5.795
12.400,-6.080,-5.805
12.403,-6.065,-5.805
12.406,-6.070,-5.820
12.408,-6.045,-5.805
12.411,-6.005,-5.815
12.414,-5.990,-5.800
12.417,-5.990,-5.795
12.419,-5.970,-5.780
12.422,-5.970,-5.780
12.425,-5.960,-5.775
12.428,-5.965,-5.765
12.431,-5.975,-5.790
12.433,-5.965,-5.805
12.436,-5.975,-5.815
12.439,-5.975,-5.810
12.442,-5.950,-5.810
12.444,-5.960,-5.790
12.447,-5.945,-5.790
12.450,-5.935,-5.785
12.453,-5.910,-5.775
12.456,-5.910,-5.770
12.458,-5.905,-5.765
12.461,-5.905,-5.775
12.464,-5.895,-5.790
12.467,-5.895,-5.800
12.469,-5.920,-5.800
12.472,-5.905,-5.820
12.475,-5.890,-5.795
12.478,-5.875,-5.805
12.481,-5.850,-5.785
12.483,-5.830,-5.785
12.486,-5.835,-5.780
12.489,-5.810,-5.800
12.492,-5.810,-5.830
12.494,-5.825,-5.850
12.497,-5.815,-5.885
12.500,-5.820,-5.885
12.503,-5.820,-5.875
12.506,-5.795,-5.875
12.508,-5.775,-5.870
12.511,-5.750,-5.840
12.514,-5.725,-5.835
12.517,-5.700,-5.820
12.519,-5.680,-5.800
12.522,-5.655,-5.775
12.525,-5.665,-5.770
12.528,-5.670,-5.760
12.531,-5.725,-5.765
12.533,-5.750,-5.770
12.536,-5.780,-5.765
12.539,-5.805,-5.770
12.542,-5.815,-5.780
12.544,-5.810,-5.790
12.547,-5.790,-5.775
12.550,-5.770,-5.760
12.553,-5.725,-5.720
12.556,-5.690,-5.685
12.558,-5.660,-5.660
12.561,-5.660,-5.650
12.564,-5.690,-5.645
12.567,-5.735,-5.660
12.569,-5.775,-5.655
12.572,-5.820,-5.705
12.575,-5.830,-5.715
12.578,-5.855,-5.735
12.581,-5.845,-5.750
12.583,-5.840,-5.730
12.586,-5.830,-5.735
12.589,-5.840,-5.740
12.592,-5.840,-5.760
12.594,-5.840,-5.785
12.597,-5.885,-5.815
12.600,-5.895,-5.830
12.603,-5.925,-5.815
12.606,-5.930,-5.800
12.608,-5.930,-5.770
12.611,-5.905,-5.740
12.614,-5.900,-5.760
12.617,-5.885,-5.740
12.619,-5.870,-5.780
12.622,-5.865,-5.780
12.625,-5.860,-5.810
12.628,-5.865,-5.815
12.631,-5.860,-5.830
12.633,-5.860,-5.825
12.636,-5.870,-5.820
12.639,-5.860,-5.825
12.642,-5.870,-5.820
12.644,-5.860,-5.815
12.647,-5.850,-5.810
12.650,-5.835,-5.810
12.653,-5.840,-5.810
12.656,-5.855,-5.825
12.658,-5.860,-5.830
12.661,-5.855,-5.835
12.664,-5.860,-5.835
12.667,-5.865,-5.825
12.669,-5.880,-5.845
12.672,-5.865,-5.865
12.675,-5.870,-5.870
12.678,-5.880,-5.910
12.681,-5.885,-5.945
12.683,-5.900,-5.995
12.686,-5.880,-6.085
12.689,-5.830,-6.195
12.692,-5.745,-6.325
12.694,-5.615,-6.475
12.697,-5.485,-6.630
12.700,-5.365,-6.765
12.703,-5.265,-6.820
12.706,-5.235,-6.800
12.708,-5.220,-6.685
12.711,-5.215,-6.545
12.714,-5.155,-6.375
12.717,-5.045,-6.210
12.719,-4.880,-6.040
12.722,-4.705,-5.835
12.725,-4.580,-5.595
12.728,-4.555,-5.305
12.731,-4.675,-5.030
12.733,-4.945,-4.835
12.736,-5.335,-4.785
12.739,-5.750,-4.870
12.742,-6.120,-5.040
12.744,-6.375,-5.270
12.747,-6.500,-5.465
12.750,-6.580,-5.580
12.753,-6.625,-5.690
12.756,-6.685,-5.750
12.758,-6.760,-5.785
12.761,-6.815,-5.850
12.764,-6.860,-5.905
12.767,-6.895,-5.965
12.769,-6.905,-5.965
12.772,-6.925,-5.990
12.775,-6.920,-5.980
12.778,-6.910,-5.965
12.781,-6.895,-5.970
12.783,-6.895,-5.970
12.786,-6.855,-5.970
12.789,-6.825,-5.980
12.792,-6.755,-5.995
12.794,-6.690,-6.015
12.797,-6.615,-6.015
12.800,-6.480,-5.990
12.803,-6.375,-5.955
12.806,-6.265,-5.910
12.808,-6.165,-5.875
12.811,-6.090,-5.800
12.814,-6.025,-5.765
12.817,-6.000,-5.755
12.819,-5.985,-5.725
12.822,-5.990,-5.740
12.825,-5.990,-5.750
12.828,-5.980,-5.770
12.831,-5.985,-5.790
12.833,-5.970,-5.795
12.836,-5.955,-5.780
12.839,-5.960,-5.780
12.842,-5.950,-5.770
12.844,-5.960,-5.770
12.847,-5.940,-5.775
12.850,-5.935,-5.775
12.853,-5.930,-5.765
12.856,-5.940,-5.795
12.858,-5.940,-5.805
12.861,-5.940,-5.820
12.864,-5.960,-5.825
12.867,-5.965,-5.815
12.869,-5.985,-5.825
12.872,-6.000,-5.840
12.875,-5.985,-5.850
12.878,-5.980,-5.845
12.881,-5.970,-5.880
12.883,-5.960,-5.870
12.886,-5.980,-5.880
12.889,-5.960,-5.900
12.892,-5.990,-5.920
12.894,-6.005,-5.940
12.897,-6.025,-5.950
12.900,-6.030,-5.975
12.903,-6.050,-5.990
12.906,-6.065,-6.000
12.908,-6.065,-6.005
12.911,-6.100,-6.015
12.914,-6.095,-6.025
12.917,-6.085,-6.035
12.919,-6.105,-6.045
12.922,-6.090,-6.075
12.925,-6.105,-6.095
12.928,-6.120,-6.120
12.931,-6.135,-6.120
12.933,-6.145,-6.115
12.936,-6.145,-6.155
12.939,-6.150,-6.160
12.942,-6.155,-6.160
12.944,-6.165,-6.155
12.947,-6.160,-6.160
12.950,-6.165,-6.140
12.953,-6.180,-6.140
12.956,-6.165,-6.145
12.958,-6.160,-6.140
12.961,-6.165,-6.180
12.964,-6.180,-6.200
12.967,-6.185,-6.205
12.969,-6.190,-6.220
12.972,-6.180,-6.225
12.975,-6.195,-6.220
12.978,-6.190,-6.210
12.981,-6.175,-6.205
12.983,-6.145,-6.190
12.986,-6.110,-6.175
12.989,-6.095,-6.180
12.992,-6.070,-6.165
12.994,-6.055,-6.150
12.997,-6.045,-6.150
13.000,-6.040,-6.155
13.003,-6.025,-6.150
13.006,-6.020,-6.135
13.008,-5.990,-6.110
13.011,-5.955,-6.100
13.014,-5.945,-6.080
13.017,-5.930,-6.055
13.019,-5.895,-6.015
13.022,-5.885,-6.010
13.025,-5.875,-5.995
13.028,-5.865,-5.990
13.031,-5.865,-5.975
13.033,-5.860,-5.970
13.036,-5.850,-5.960
13.039,-5.850,-5.950
13.042,-5.845,-5.945
13.044,-5.835,-5.910
13.047,-5.815,-5.875
13.050,-5.805,-5.860
13.053,-5.795,-5.840
13.056,-5.785,-5.840
13.058,-5.790,-5.850
13.061,-5.790,-5.875
13.064,-5.790,-5.880
13.067,-5.790,-5.890
13.069,-5.810,-5.895
13.072,-5.810,-5.885
13.075,-5.800,-5.870
13.078,-5.785,-5.845
13.081,-5.780,-5.850
13.083,-5.775,-5.820
13.086,-5.765,-5.815
13.089,-5.760,-5.805
13.092,-5.760,-5.800
13.094,-5.765,-5.820
13.097,-5.770,-5.820
13.100,-5.795,-5.830
13.103,-5.810,-5.825
13.106,-5.830,-5.810
13.108,-5.810,-5.820
13.111,-5.795,-5.825
13.114,-5.780,-5.825
13.117,-5.770,-5.795
13.119,-5.765,-5.800
13.122,-5.770,-5.790
13.125,-5.780,-5.820
13.128,-5.815,-5.810
13.131,-5.810,-5.820
13.133,-5.825,-5.830
13.136,-5.830,-5.845
13.139,-5.845,-5.850
13.142,-5.865,-5.845
13.144,-5.855,-5.835
13.147,-5.840,-5.820
13.150,-5.840,-5.830
13.153,-5.845,-5.815
13.156,-5.820,-5.810
13.158,-5.825,-5.805
13.161,-5.820,-5.800
13.164,-5.835,-5.800
13.167,-5.835,-5.805
13.169,-5.855,-5.820
13.172,-5.865,-5.845
13.175,-5.850,-5.830
13.178,-5.850,-5.835
13.181,-5.830,-5.820
13.183,-5.820,-5.790
13.186,-5.810,-5.800
13.189,-5.800,-5.780
13.192,-5.790,-5.765
13.194,-5.800,-5.800
13.197,-5.810,-5.805
13.200,-5.830,-5.800
13.203,-5.860,-5.805
13.206,-5.865,-5.795
13.208,-5.855,-5.810
13.211,-5.845,-5.810
13.214,-5.825,-5.800
13.217,-5.825,-5.805
13.219,-5.805,-5.820
13.222,-5.800,-5.835
13.225,-5.795,-5.840
13.228,-5.795,-5.840
13.231,-5.810,-5.825
13.233,-5.820,-5.805
13.236,-5.830,-5.800
13.239,-5.845,-5.810
13.242,-5.825,-5.800
13.244,-5.820,-5.780
13.247,-5.815,-5.785
13.250,-5.820,-5.790
13.253,-5.815,-5.785
13.256,-5.820,-5.790
13.258,-5.825,-5.815
13.261,-5.825,-5.820
13.264,-5.830,-5.825
13.267,-5.850,-5.865
13.269,-5.840,-5.855
13.272,-5.850,-5.860
13.275,-5.845,-5.835
13.278,-5.845,-5.810
13.281,-5.825,-5.790
13.283,-5.810,-5.760
13.286,-5.795,-5.755
13.289,-5.785,-5.765
13.292,-5.800,-5.785
13.294,-5.800,-5.800
13.297,-5.810,-5.835
13.300,-5.810,-5.845
13.303,-5.815,-5.825
13.306,-5.815,-5.815
13.308,-5.810,-5.805
13.311,-5.810,-5.770
13.314,-5.780,-5.780
13.317,-5.770,-5.780
13.319,-5.750,-5.775
13.322,-5.740,-5.780
13.325,-5.740,-5.810
13.328,-5.735,-5.815
13.331,-5.735,-5.835
13.333,-5.740,-5.845
13.336,-5.750,-5.835
13.339,-5.755,-5.850
13.342,-5.755,-5.835
13.344,-5.735,-5.815
13.347,-5.705,-5.825
13.350,-5.650,-5.805
13.353,-5.620,-5.805
13.356,-5.590,-5.780
13.358,-5.605,-5.760
13.361,-5.625,-5.735
13.364,-5.655,-5.730
13.367,-5.665,-5.750
13.369,-5.705,-5.770
13.372,-5.735,-5.785
13.375,-5.755,-5.780
13.378,-5.740,-5.755
13.381,-5.695,-5.720
13.383,-5.680,-5.660
13.386,-5.645,-5.600
13.389,-5.615,-5.535
13.392,-5.625,-5.480
13.394,-5.625,-5.425
13.397,-5.635,-5.415
13.400,-5.630,-5.440
13.403,-5.645,-5.525
13.406,-5.680,-5.630
13.408,-5.710,-5.750
13.411,-5.735,-5.815
13.414,-5.775,-5.860
13.417,-5.780,-5.820
13.419,-5.800,-5.730
13.422,-5.825,-5.625
13.425,-5.825,-5.595
13.428,-5.850,-5.650
13.431,-5.865,-5.735
13.433,-5.865,-5.835
13.436,-5.895,-5.865
13.439,-5.905,-5.885
13.442,-5.920,-5.880
13.444,-5.930,-5.855
13.447,-5.900,-5.830
13.450,-5.890,-5.805
13.453,-5.885,-5.785
13.456,-5.875,-5.790
13.458,-5.885,-5.795
13.461,-5.875,-5.800
13.464,-5.870,-5.795
13.467,-5.870,-5.780
13.469,-5.860,-5.790
13.472,-5.850,-5.795
13.475,-5.870,-5.770
13.478,-5.875,-5.755
13.481,-5.870,-5.755
13.483,-5.865,-5.755
13.486,-5.860,-5.750
13.489,-5.885,-5.760
13.492,-5.890,-5.800
13.494,-5.880,-5.810
13.497,-5.895,-5.810
13.500,-5.910,-5.815
13.503,-5.920,-5.810
13.506,-5.915,-5.835
13.508,-5.900,-5.825
13.511,-5.880,-5.840
13.514,-5.870,-5.855
13.517,-5.880,-5.875
13.519,-5.880,-5.910
13.522,-5.885,-5.965
13.525,-5.850,-6.040
13.528,-5.830,-6.130
13.531,-5.760,-6.245
13.533,-5.655,-6.365
13.536,-5.535,-6.475
13.539,-5.390,-6.585
13.542,-5.255,-6.675
13.544,-5.165,-6.685
13.547,-5.130,-6.620
13.550,-5.160,-6.525
13.553,-5.170,-6.375
13.556,-5.145,-6.245
13.558,-5.065,-6.140
13.561,-4.955,-6.000
13.564,-4.810,-5.860
13.567,-4.690,-5.645
13.569,-4.630,-5.355
13.572,-4.700,-5.075
13.575,-4.915,-4.855
13.578,-5.280,-4.745
13.581,-5.695,-4.820
13.583,-6.090,-5.010
13.586,-6.400,-5.275
13.589,-6.580,-5.520
13.592,-6.670,-5.715
13.594,-6.730,-5.815
13.597,-6.785,-5.875
13.600,-6.820,-5.930
13.603,-6.860,-5.990
13.606,-6.880,-6.025
13.608,-6.920,-6.050
13.611,-6.945,-6.065
13.614,-6.935,-6.040
13.617,-6.945,-6.040
13.619,-6.935,-6.025
13.622,-6.930,-6.020
13.625,-6.915,-6.020
13.628,-6.890,-6.025
13.631,-6.865,-6.035
13.633,-6.805,-6.070
13.636,-6.735,-6.075
13.639,-6.610,-6.090
13.642,-6.455,-6.035
13.644,-6.310,-5.960
13.647,-6.145,-5.895
13.650,-6.030,-5.820
13.653,-5.965,-5.795
13.656,-5.940,-5.775
13.658,-5.950,-5.790
13.661,-5.975,-5.790
13.664,-5.980,-5.810
13.667,-5.985,-5.800
13.669,-5.990,-5.805
13.672,-5.980,-5.805
13.675,-5.975,-5.800
13.678,-5.950,-5.765
13.681,-5.930,-5.765
13.683,-5.925,-5.770
13.686,-5.925,-5.770
13.689,-5.920,-5.760
13.692,-5.925,-5.780
13.694,-5.915,-5.825
13.697,-5.920,-5.825
13.700,-5.930,-5.855
13.703,-5.945,-5.840
13.706,-5.965,-5.875
13.708,-5.965,-5.870
13.711,-5.945,-5.850
13.714,-5.950,-5.870
13.717,-5.960,-5.875
13.719,-5.965,-5.880
13.722,-5.985,-5.905
13.725,-6.005,-5.930
13.728,-6.010,-5.960
13.731,-6.005,-5.960
13.733,-6.015,-5.995
13.736,-6.040,-5.995
13.739,-6.045,-6.015
13.742,-6.055,-6.020
13.744,-6.075,-6.025
13.747,-6.070,-6.040
13.750,-6.065,-6.050
13.753,-6.080,-6.045
13.756,-6.080,-6.070
13.758,-6.095,-6.075
13.761,-6.105,-6.095
13.764,-6.120,-6.130
13.767,-6.150,-6.125
13.769,-6.165,-6.155
13.772,-6.165,-6.180
13.775,-6.170,-6.170
13.778,-6.200,-6.175
13.781,-6.175,-6.180
13.783,-6.180,-6.185
13.786,-6.175,-6.185
13.789,-6.165,-6.165
13.792,-6.195,-6.175
13.794,-6.180,-6.160
13.797,-6.190,-6.195
13.800,-6.200,-6.225
13.803,-6.210,-6.225
13.806,-6.200,-6.235
13.808,-6.205,-6.240
13.811,-6.200,-6.220
13.814,-6.200,-6.190
13.817,-6.185,-6.180
13.819,-6.180,-6.170
13.822,-6.155,-6.200
13.825,-6.155,-6.210
13.828,-6.135,-6.220
13.831,-6.145,-6.205
13.833,-6.145,-6.200
13.836,-6.115,-6.170
13.839,-6.090,-6.190
13.842,-6.075,-6.175
13.844,-6.070,-6.170
13.847,-6.065,-6.140
13.850,-6.025,-6.100
13.853,-6.025,-6.060
13.856,-5.990,-6.030
13.858,-5.975,-5.990
13.861,-5.955,-5.965
13.864,-5.935,-5.985
13.867,-5.930,-6.010
13.869,-5.950,-6.045
13.872,-5.935,-6.070
13.875,-5.945,-6.065
13.878,-5.925,-6.020
13.881,-5.925,-5.990
13.883,-5.915,-5.970
13.886,-5.905,-5.940
13.889,-5.895,-5.930
13.892,-5.890,-5.930
13.894,-5.880,-5.930
13.897,-5.885,-5.935
13.900,-5.870,-5.930
13.903,-5.885,-5.915
13.906,-5.880,-5.895
13.908,-5.880,-5.880
13.911,-5.855,-5.845
13.914,-5.855,-5.825
13.917,-5.855,-5.810
13.919,-5.850,-5.815
13.922,-5.845,-5.825
13.925,-5.850,-5.825
13.928,-5.845,-5.835
13.931,-5.855,-5.840
13.933,-5.870,-5.840
13.936,-5.870,-5.835
13.939,-5.900,-5.840
13.942,-5.880,-5.820
13.944,-5.870,-5.790
13.947,-5.880,-5.780
13.950,-5.860,-5.780
13.953,-5.850,-5.765
13.956,-5.825,-5.795
13.958,-5.835,-5.805
13.961,-5.840,-5.805
13.964,-5.870,-5.820
13.967,-5.890,-5.810
13.969,-5.905,-5.825
13.972,-5.905,-5.850
13.975,-5.900,-5.845
13.978,-5.895,-5.825
13.981,-5.880,-5.805
13.983,-5.865,-5.795
13.986,-5.855,-5.775
13.989,-5.850,-5.780
13.992,-5.860,-5.795
13.994,-5.865,-5.795
13.997,-5.895,-5.815
14.000,-5.910,-5.815
14.003,-5.925,-5.820
14.006,-5.940,-5.835
14.008,-5.925,-5.860
14.011,-5.905,-5.860
14.014,-5.895,-5.875
14.017,-5.885,-5.865
14.019,-5.920,-5.830
14.022,-5.915,-5.820
14.025,-5.915,-5.840
14.028,-5.915,-5.835
14.031,-5.920,-5.850
14.033,-5.915,-5.855
14.036,-5.925,-5.865
14.039,-5.925,-5.855
14.042,-5.915,-5.855
14.044,-5.920,-5.845
14.047,-5.920,-5.835
14.050,-5.905,-5.825
14.053,-5.890,-5.815
14.056,-5.880,-5.845
14.058,-5.885,-5.835
14.061,-5.885,-5.845
14.064,-5.890,-5.845
14.067,-5.910,-5.840
14.069,-5.915,-5.840
14.072,-5.910,-5.845
14.075,-5.900,-5.840
14.078,-5.870,-5.820
14.081,-5.875,-5.815
14.083,-5.855,-5.800
14.086,-5.865,-5.800
14.089,-5.850,-5.815
14.092,-5.850,-5.815
14.094,-5.855,-5.825
14.097,-5.875,-5.815
14.100,-5.865,-5.840
14.103,-5.890,-5.845
14.106,-5.900,-5.850
14.108,-5.870,-5.840
14.111,-5.870,-5.815
14.114,-5.855,-5.790
14.117,-5.855,-5.790
14.119,-5.855,-5.810
14.122,-5.845,-5.855
14.125,-5.845,-5.860
14.128,-5.855,-5.850
14.131,-5.850,-5.860
14.133,-5.840,-5.865
14.136,-5.850,-5.875
14.139,-5.835,-5.870
14.142,-5.800,-5.885
14.144,-5.795,-5.880
14.147,-5.775,-5.875
14.150,-5.750,-5.875
14.153,-5.750,-5.860
14.156,-5.745,-5.880
14.158,-5.760,-5.890
14.161,-5.735,-5.890
14.164,-5.740,-5.875
14.167,-5.725,-5.860
14.169,-5.750,-5.840
14.172,-5.730,-5.800
14.175,-5.740,-5.795
14.178,-5.745,-5.795
14.181,-5.745,-5.795
14.183,-5.750,-5.800
14.186,-5.760,-5.815
14.189,-5.750,-5.815
14.192,-5.735,-5.780
14.194,-5.700,-5.760
14.197,-5.690,-5.740
14.200,-5.690,-5.730
14.203,-5.730,-5.740
14.206,-5.760,-5.755
14.208,-5.795,-5.740
14.211,-5.815,-5.735
14.214,-5.820,-5.740
14.217,-5.830,-5.745
14.219,-5.830,-5.780
14.222,-5.825,-5.800
14.225,-5.840,-5.810
14.228,-5.855,-5.825
14.231,-5.885,-5.820
14.233,-5.925,-5.810
14.236,-5.945,-5.815
14.239,-5.960,-5.795
14.242,-5.980,-5.825
14.244,-5.985,-5.820
14.247,-5.965,-5.780
14.250,-5.950,-5.745
14.253,-5.920,-5.760
14.256,-5.905,-5.830
14.258,-5.915,-5.900
14.261,-5.915,-5.920
14.264,-5.930,-5.945
14.267,-5.960,-5.910
14.269,-5.990,-5.865
14.272,-5.995,-5.840
14.275,-6.025,-5.840
14.278,-6.030,-5.825
14.281,-6.025,-5.825
14.283,-6.000,-5.790
14.286,-5.960,-5.735
14.289,-5.945,-5.715
14.292,-5.915,-5.750
14.294,-5.910,-5.805
14.297,-5.925,-5.855
14.300,-5.940,-5.920
14.303,-5.955,-5.980
14.306,-5.955,-6.025
14.308,-5.960,-6.020
14.311,-5.940,-5.970
14.314,-5.930,-5.935
14.317,-5.935,-5.910
14.319,-5.965,-5.940
14.322,-6.005,-6.005
14.325,-6.025,-6.105
14.328,-6.020,-6.230
14.331,-5.950,-6.395
14.333,-5.830,-6.575
14.336,-5.710,-6.755
14.339,-5.570,-6.890
14.342,-5.440,-6.955
14.344,-5.390,-6.905
14.347,-5.390,-6.785
14.350,-5.410,-6.575
14.353,-5.410,-6.375
14.356,-5.355,-6.285
14.358,-5.200,-6.230
14.361,-5.020,-6.130
14.364,-4.800,-5.925
14.367,-4.665,-5.625
14.369,-4.660,-5.270
14.372,-4.825,-5.000
14.375,-5.140,-4.840
14.378,-5.550,-4.875
14.381,-5.955,-5.040
14.383,-6.290,-5.275
14.386,-6.485,-5.455
14.389,-6.610,-5.605
14.392,-6.690,-5.670
14.394,-6.750,-5.745
14.397,-6.825,-5.810
14.400,-6.895,-5.855
14.403,-6.950,-5.905
14.406,-7.000,-5.965
14.408,-7.020,-6.015
14.411,-7.015,-6.030
14.414,-6.980,-6.005
14.417,-6.950,-5.985
14.419,-6.925,-5.955
14.422,-6.910,-5.960
14.425,-6.895,-5.980
14.428,-6.860,-6.015
14.431,-6.810,-6.045
14.433,-6.735,-6.075
14.436,-6.660,-6.065
14.439,-6.555,-6.025
14.442,-6.460,-5.920
14.444,-6.295,-5.785
14.447,-6.170,-5.690
14.450,-6.080,-5.685
14.453,-6.045,-5.760
14.456,-6.030,-5.840
14.458,-6.020,-5.890
14.461,-6.015,-5.900
14.464,-6.005,-5.870
14.467,-5.995,-5.835
14.469,-5.990,-5.820
14.472,-5.975,-5.815
14.475,-6.000,-5.820
14.478,-6.000,-5.805
14.481,-6.010,-5.800
14.483,-5.990,-5.780
14.486,-5.990,-5.755
14.489,-5.985,-5.765
14.492,-5.980,-5.785
14.494,-5.990,-5.825
14.497,-6.035,-5.875
14.500,-6.040,-5.865
14.503,-6.030,-5.850
14.506,-6.040,-5.835
14.508,-6.010,-5.805
14.511,-6.000,-5.810
14.514,-6.000,-5.830
14.517,-5.990,-5.845
14.519,-5.995,-5.865
14.522,-6.000,-5.880
14.525,-6.010,-5.890
14.528,-6.035,-5.900
14.531,-6.070,-5.885
14.533,-6.095,-5.900
14.536,-6.110,-5.940
14.539,-6.115,-6.010
14.542,-6.125,-6.050
14.544,-6.120,-6.065
14.547,-6.135,-6.060
14.550,-6.150,-6.030
14.553,-6.150,-6.020
14.556,-6.135,-6.005
14.558,-6.130,-6.025
14.561,-6.130,-6.045
14.564,-6.145,-6.085
14.567,-6.180,-6.090
14.569,-6.195,-6.110
14.572,-6.215,-6.120
14.575,-6.230,-6.115
14.578,-6.230,-6.115
14.581,-6.225,-6.120
14.583,-6.200,-6.150
14.586,-6.185,-6.155
14.589,-6.165,-6.185
14.592,-6.185,-6.190
14.594,-6.195,-6.160
14.597,-6.225,-6.180
14.600,-6.245,-6.160
14.603,-6.280,-6.145
14.606,-6.275,-6.120
14.608,-6.270,-6.140
14.611,-6.240,-6.195
14.614,-6.230,-6.240
14.617,-6.225,-6.265
14.619,-6.225,-6.225
14.622,-6.220,-6.185
14.625,-6.215,-6.135
14.628,-6.180,-6.135
14.631,-6.170,-6.160
14.633,-6.140,-6.180
14.636,-6.135,-6.205
14.639,-6.120,-6.205
14.642,-6.145,-6.170
14.644,-6.150,-6.125
14.647,-6.155,-6.100
14.650,-6.110,-6.070
14.653,-6.070,-6.025
14.656,-6.025,-6.005
14.658,-5.995,-5.990
14.661,-5.985,-6.015
14.664,-5.990,-6.050
14.667,-5.990,-6.075
14.669,-5.990,-6.080
14.672,-6.000,-6.055
14.675,-6.015,-6.005
14.678,-6.010,-5.945
14.681,-6.005,-5.900
14.683,-5.975,-5.860
14.686,-5.965,-5.870
14.689,-5.930,-5.890
14.692,-5.915,-5.905
14.694,-5.880,-5.905
14.697,-5.885,-5.900
14.700,-5.900,-5.900
14.703,-5.895,-5.885
14.706,-5.910,-5.885
14.708,-5.910,-5.865
14.711,-5.930,-5.865
14.714,-5.915,-5.845
14.717,-5.905,-5.835
14.719,-5.875,-5.815
14.722,-5.855,-5.800
14.725,-5.865,-5.800
14.728,-5.865,-5.835
14.731,-5.895,-5.865
14.733,-5.915,-5.870
14.736,-5.925,-5.880
14.739,-5.945,-5.875
14.742,-5.940,-5.880
14.744,-5.940,-5.870
14.747,-5.930,-5.855
14.750,-5.915,-5.835
14.753,-5.910,-5.810
14.756,-5.930,-5.815
14.758,-5.905,-5.815
14.761,-5.890,-5.835
14.764,-5.880,-5.865
14.767,-5.900,-5.910
14.769,-5.935,-5.910
14.772,-5.940,-5.890
14.775,-5.960,-5.845
14.778,-5.960,-5.805
14.781,-5.980,-5.810
14.783,-5.970,-5.785
14.786,-5.965,-5.810
14.789,-5.960,-5.815
14.792,-5.960,-5.810
14.794,-5.975,-5.795
14.797,-5.980,-5.835
14.800,-5.985,-5.845
14.803,-5.990,-5.825
14.806,-6.000,-5.815
14.808,-6.000,-5.820
14.811,-6.005,-5.860
14.814,-5.985,-5.890
14.817,-5.970,-5.905
14.819,-5.945,-5.900
14.822,-5.945,-5.920
14.825,-5.930,-5.940
14.828,-5.940,-5.930
14.831,-5.950,-5.935
14.833,-5.960,-5.915
14.836,-5.975,-5.915
14.839,-6.000,-5.900
14.842,-5.985,-5.900
14.844,-5.985,-5.860
14.847,-5.990,-5.825
14.850,-5.945,-5.820
14.853,-5.935,-5.825
14.856,-5.925,-5.855
14.858,-5.930,-5.865
14.861,-5.955,-5.870
14.864,-5.970,-5.870
14.867,-5.985,-5.840
14.869,-5.990,-5.830
14.872,-5.985,-5.840
14.875,-5.965,-5.845
14.878,-5.960,-5.865
14.881,-5.950,-5.890
14.883,-5.940,-5.875
14.886,-5.925,-5.855
14.889,-5.900,-5.855
14.892,-5.895,-5.845
14.894,-5.890,-5.860
14.897,-5.910,-5.880
14.900,-5.940,-5.885
14.903,-5.950,-5.870
14.906,-5.980,-5.860
14.908,-5.980,-5.840
14.911,-5.965,-5.810
14.914,-5.960,-5.800
14.917,-5.930,-5.810
14.919,-5.925,-5.845
14.922,-5.920,-5.890
14.925,-5.910,-5.905
14.928,-5.920,-5.915
14.931,-5.915,-5.890
14.933,-5.910,-5.890
14.936,-5.895,-5.895
14.939,-5.895,-5.890
14.942,-5.875,-5.905
14.944,-5.870,-5.895
14.947,-5.845,-5.895
14.950,-5.820,-5.920
14.953,-5.785,-5.925
14.956,-5.790,-5.915
14.958,-5.795,-5.910
14.961,-5.785,-5.905
14.964,-5.790,-5.870
14.967,-5.780,-5.850
14.969,-5.775,-5.840
14.972,-5.765,-5.820
14.975,-5.755,-5.795
14.978,-5.740,-5.805
14.981,-5.750,-5.815
14.983,-5.760,-5.805
14.986,-5.775,-5.820
14.989,-5.815,-5.835
14.992,-5.855,-5.830
14.994,-5.855,-5.800
14.997,-5.860,-5.780
15.000,-5.840,-5.765
15.003,-5.820,-5.730
15.006,-5.810,-5.685
15.008,-5.800,-5.640
15.011,-5.805,-5.620
15.014,-5.795,-5.650
15.017,-5.810,-5.735
15.019,-5.825,-5.815
15.022,-5.835,-5.865
15.025,-5.870,-5.865
15.028,-5.895,-5.850
15.031,-5.910,-5.825
15.033,-5.915,-5.800
15.036,-5.940,-5.820
15.039,-5.960,-5.825
15.042,-6.000,-5.825
15.044,-6.005,-5.825
15.047,-6.020,-5.850
15.050,-6.010,-5.870
15.053,-6.025,-5.860
15.056,-6.020,-5.835
15.058,-6.025,-5.825
15.061,-6.015,-5.835
15.064,-6.000,-5.870
15.067,-6.015,-5.910
15.069,-6.010,-5.925
15.072,-6.015,-5.925
15.075,-6.020,-5.915
15.078,-6.020,-5.900
15.081,-6.025,-5.905
15.083,-6.035,-5.905
15.086,-6.050,-5.850
15.089,-6.050,-5.815
15.092,-6.055,-5.830
15.094,-6.045,-5.870
15.097,-6.035,-5.895
15.100,-6.025,-5.920
15.103,-6.025,-5.925
15.106,-6.045,-5.915
15.108,-6.050,-5.910
15.111,-6.055,-5.900
15.114,-6.040,-5.900
15.117,-6.020,-5.875
15.119,-5.985,-5.870
15.122,-5.990,-5.900
15.125,-6.020,-5.910
15.128,-6.045,-5.935
15.131,-6.095,-5.960
15.133,-6.125,-6.005
15.136,-6.135,-6.085
15.139,-6.110,-6.170
15.142,-6.075,-6.265
15.144,-5.985,-6.370
15.147,-5.880,-6.510
15.150,-5.745,-6.675
15.153,-5.620,-6.795
15.156,-5.530,-6.910
15.158,-5.485,-6.950
15.161,-5.490,-6.915
15.164,-5.525,-6.785
15.167,-5.535,-6.585
15.169,-5.455,-6.365
15.172,-5.315,-6.170
15.175,-5.120,-6.010
15.178,-4.905,-5.835
15.181,-4.745,-5.590
15.183,-4.700,-5.330
15.186,-4.815,-5.090
15.189,-5.115,-4.930
15.192,-5.555,-4.880
15.194,-6.015,-4.995
15.197,-6.410,-5.180
15.200,-6.670,-5.420
15.203,-6.810,-5.635
15.206,-6.915,-5.770
15.208,-6.975,-5.855
15.211,-7.010,-5.905
15.214,-7.050,-5.935
15.217,-7.095,-5.985
15.219,-7.115,-6.015
15.222,-7.110,-6.030
15.225,-7.115,-6.075
15.228,-7.100,-6.060
15.231,-7.085,-6.060
15.233,-7.075,-6.060
15.236,-7.090,-6.050
15.239,-7.090,-6.070
15.242,-7.075,-6.075
15.244,-7.025,-6.075
15.247,-6.945,-6.065
15.250,-6.810,-6.055
15.253,-6.665,-6.000
15.256,-6.500,-5.955
15.258,-6.390,-5.910
15.261,-6.280,-5.855
15.264,-6.210,-5.830
15.267,-6.175,-5.810
15.269,-6.155,-5.830
15.272,-6.145,-5.835
15.275,-6.145,-5.865
15.278,-6.145,-5.850
15.281,-6.125,-5.825
15.283,-6.115,-5.805
15.286,-6.100,-5.780
15.289,-6.085,-5.770
15.292,-6.060,-5.775
15.294,-6.070,-5.780
15.297,-6.095,-5.790
15.300,-6.095,-5.805
15.303,-6.100,-5.800
15.306,-6.110,-5.820
15.308,-6.130,-5.820
15.311,-6.135,-5.830
15.314,-6.100,-5.830
15.317,-6.090,-5.825
15.319,-6.085,-5.825
15.322,-6.085,-5.830
15.325,-6.080,-5.845
15.328,-6.085,-5.855
15.331,-6.115,-5.905
15.333,-6.135,-5.920
15.336,-6.150,-5.925
15.339,-6.175,-5.930
15.342,-6.185,-5.950
15.344,-6.170,-5.950
15.347,-6.185,-5.950
15.350,-6.190,-5.950
15.353,-6.170,-5.975
15.356,-6.180,-5.975
15.358,-6.185,-5.985
15.361,-6.200,-6.025
15.364,-6.215,-6.040
15.367,-6.230,-6.060
15.369,-6.250,-6.080
15.372,-6.265,-6.095
15.375,-6.280,-6.100
15.378,-6.280,-6.095
15.381,-6.305,-6.100
15.383,-6.300,-6.100
15.386,-6.305,-6.095
15.389,-6.310,-6.095
15.392,-6.290,-6.115
15.394,-6.290,-6.125
15.397,-6.310,-6.150
15.400,-6.325,-6.145
15.403,-6.340,-6.145
15.406,-6.355,-6.170
15.408,-6.355,-6.180
15.411,-6.370,-6.175
15.414,-6.370,-6.175
15.417,-6.345,-6.175
15.419,-6.335,-6.160
15.422,-6.315,-6.155
15.425,-6.315,-6.165
15.428,-6.315,-6.160
15.431,-6.315,-6.180
15.433,-6.310,-6.190
15.436,-6.310,-6.185
15.439,-6.295,-6.160
15.442,-6.300,-6.155
15.444,-6.290,-6.140
15.447,-6.280,-6.140
15.450,-6.245,-6.120
15.453,-6.230,-6.115
15.456,-6.225,-6.115
15.458,-6.190,-6.100
15.461,-6.185,-6.095
15.464,-6.185,-6.085
15.467,-6.170,-6.070
15.469,-6.160,-6.065
15.472,-6.130,-6.050
15.475,-6.105,-6.030
15.478,-6.105,-6.025
15.481,-6.085,-5.995
15.483,-6.075,-5.970
15.486,-6.065,-5.955
15.489,-6.055,-5.955
15.492,-6.055,-5.930
15.494,-6.035,-5.940
15.497,-6.025,-5.935
15.500,-6.040,-5.940
15.503,-6.035,-5.895
15.506,-6.030,-5.905
15.508,-6.045,-5.895
15.511,-6.035,-5.875
15.514,-6.020,-5.870
15.517,-6.015,-5.845
15.519,-6.010,-5.840
15.522,-5.980,-5.860
15.525,-5.975,-5.845
15.528,-5.995,-5.855
15.531,-6.005,-5.850
15.533,-6.025,-5.845
15.536,-6.040,-5.835
15.539,-6.045,-5.835
15.542,-6.045,-5.845
15.544,-6.035,-5.835
15.547,-6.020,-5.845
15.550,-6.015,-5.825
15.553,-6.005,-5.830
15.556,-6.035,-5.825
15.558,-6.035,-5.850
15.561,-6.035,-5.835
15.564,-6.030,-5.850
15.567,-6.025,-5.860
15.569,-6.040,-5.830
15.572,-6.050,-5.840
15.575,-6.075,-5.820
15.578,-6.065,-5.800
15.581,-6.055,-5.790
15.583,-6.050,-5.795
15.586,-6.040,-5.775
15.589,-6.045,-5.795
15.592,-6.040,-5.810
15.594,-6.030,-5.825
15.597,-6.030,-5.845
15.600,-6.060,-5.835
15.603,-6.065,-5.845
15.606,-6.060,-5.835
15.608,-6.070,-5.820
15.611,-6.065,-5.800
15.614,-6.055,-5.830
15.617,-6.060,-5.805
15.619,-6.055,-5.815
15.622,-6.030,-5.800
15.625,-6.040,-5.810
15.628,-6.035,-5.810
15.631,-6.055,-5.810
15.633,-6.050,-5.820
15.636,-6.080,-5.850
15.639,-6.085,-5.850
15.642,-6.090,-5.845
15.644,-6.095,-5.835
15.647,-6.080,-5.845
15.650,-6.050,-5.815
15.653,-6.050,-5.815
15.656,-6.055,-5.815
15.658,-6.035,-5.830
15.661,-6.055,-5.820
15.664,-6.035,-5.860
15.667,-6.060,-5.890
15.669,-6.040,-5.875
15.672,-6.040,-5.880
15.675,-6.045,-5.860
15.678,-6.055,-5.835
15.681,-6.045,-5.810
15.683,-6.030,-5.790
15.686,-6.025,-5.785
15.689,-6.000,-5.800
15.692,-5.965,-5.825
15.694,-5.950,-5.825
15.697,-5.945,-5.840
15.700,-5.955,-5.850
15.703,-5.970,-5.870
15.706,-6.000,-5.875
15.708,-6.025,-5.870
15.711,-6.020,-5.860
15.714,-6.025,-5.860
15.717,-6.005,-5.845
15.719,-5.995,-5.820
15.722,-5.995,-5.825
15.725,-6.000,-5.810
15.728,-6.010,-5.810
15.731,-6.035,-5.800
15.733,-6.070,-5.815
15.736,-6.090,-5.805
15.739,-6.095,-5.810
15.742,-6.100,-5.800
15.744,-6.085,-5.775
15.747,-6.080,-5.775
15.750,-6.070,-5.775
15.753,-6.065,-5.750
15.756,-6.050,-5.750
15.758,-6.050,-5.750
15.761,-6.060,-5.755
15.764,-6.065,-5.745
15.767,-6.070,-5.765
15.769,-6.060,-5.770
15.772,-6.070,-5.810
15.775,-6.060,-5.785
15.778,-6.060,-5.785
15.781,-6.035,-5.785
15.783,-6.015,-5.775
15.786,-6.005,-5.760
15.789,-5.975,-5.760
15.792,-5.940,-5.760
15.794,-5.905,-5.745
15.797,-5.880,-5.740
15.800,-5.880,-5.735
15.803,-5.870,-5.700
15.806,-5.875,-5.690
15.808,-5.895,-5.670
15.811,-5.915,-5.675
15.814,-5.920,-5.685
15.817,-5.940,-5.695
15.819,-5.950,-5.725
15.822,-5.945,-5.715
15.825,-5.935,-5.710
15.828,-5.925,-5.695
15.831,-5.920,-5.680
15.833,-5.900,-5.655
15.836,-5.905,-5.620
15.839,-5.900,-5.605
15.842,-5.920,-5.590
15.844,-5.925,-5.575
15.847,-5.955,-5.595
15.850,-5.960,-5.625
15.853,-5.990,-5.655
15.856,-6.030,-5.690
15.858,-6.055,-5.725
15.861,-6.080,-5.700
15.864,-6.075,-5.735
15.867,-6.090,-5.725
15.869,-6.100,-5.730
15.872,-6.120,-5.735
15.875,-6.130,-5.725
15.878,-6.135,-5.745
15.881,-6.140,-5.735
15.883,-6.135,-5.750
15.886,-6.120,-5.745
15.889,-6.125,-5.750
15.892,-6.120,-5.755
15.894,-6.130,-5.750
15.897,-6.120,-5.750
15.900,-6.140,-5.765
15.903,-6.150,-5.765
15.906,-6.160,-5.765
15.908,-6.155,-5.760
15.911,-6.155,-5.760
15.914,-6.140,-5.755
15.917,-6.140,-5.745
15.919,-6.135,-5.735
15.922,-6.135,-5.740
15.925,-6.145,-5.730
15.928,-6.175,-5.735
15.931,-6.160,-5.755
15.933,-6.170,-5.770
15.936,-6.160,-5.775
15.939,-6.160,-5.775
15.942,-6.160,-5.760
15.944,-6.155,-5.740
15.947,-6.140,-5.740
15.950,-6.135,-5.720
15.953,-6.135,-5.720
15.956,-6.140,-5.735
15.958,-6.145,-5.780
15.961,-6.170,-5.835
15.964,-6.190,-5.905
15.967,-6.195,-5.960
15.969,-6.195,-6.035
15.972,-6.135,-6.145
15.975,-6.045,-6.255
15.978,-5.915,-6.360
15.981,-5.770,-6.475
15.983,-5.615,-6.590
15.986,-5.490,-6.650
15.989,-5.400,-6.650
15.992,-5.415,-6.570
15.994,-5.440,-6.450
15.997,-5.445,-6.320
16.000,-5.415,-6.190
16.003,-5.305,-6.040
16.006,-5.150,-5.840
16.008,-5.015,-5.560
16.011,-4.965,-5.250
16.014,-5.065,-4.970
16.017,-5.370,-4.800
16.019,-5.805,-4.800
16.022,-6.275,-4.985
16.025,-6.680,-5.255
16.028,-6.980,-5.520
16.031,-7.140,-5.710
16.033,-7.220,-5.855
16.036,-7.255,-5.900
16.039,-7.265,-5.930
16.042,-7.300,-5.955
16.044,-7.310,-5.965
16.047,-7.335,-5.990
16.050,-7.335,-6.010
16.053,-7.315,-6.015
16.056,-7.310,-6.000
16.058,-7.305,-5.990
16.061,-7.300,-5.985
16.064,-7.290,-5.990
16.067,-7.265,-5.990
16.069,-7.245,-6.015
16.072,-7.170,-6.015
16.075,-7.090,-6.015
16.078,-6.980,-5.995
16.081,-6.830,-5.930
16.083,-6.680,-5.865
16.086,-6.550,-5.790
16.089,-6.435,-5.730
16.092,-6.370,-5.710
16.094,-6.315,-5.685
16.097,-6.295,-5.690
16.100,-6.300,-5.685
16.103,-6.290,-5.690
16.106,-6.295,-5.695
16.108,-6.295,-5.665
16.111,-6.270,-5.655
16.114,-6.255,-5.660
16.117,-6.230,-5.660
16.119,-6.210,-5.655
16.122,-6.200,-5.660
16.125,-6.205,-5.675
16.128,-6.210,-5.680
16.131,-6.230,-5.700
16.133,-6.240,-5.710
16.136,-6.250,-5.755
16.139,-6.250,-5.755
16.142,-6.255,-5.730
16.144,-6.260,-5.740
16.147,-6.255,-5.725
16.150,-6.245,-5.720
16.153,-6.235,-5.720
16.156,-6.230,-5.735
16.158,-6.245,-5.750
16.161,-6.250,-5.765
16.164,-6.275,-5.775
16.167,-6.280,-5.825
16.169,-6.300,-5.845
16.172,-6.325,-5.870
16.175,-6.330,-5.860
16.178,-6.360,-5.850
16.181,-6.360,-5.860
16.183,-6.330,-5.865
16.186,-6.335,-5.895
16.189,-6.330,-5.905
16.192,-6.335,-5.910
16.194,-6.350,-5.940
16.197,-6.380,-5.965
16.200,-6.400,-5.980
16.203,-6.415,-5.990
16.206,-6.445,-5.980
16.208,-6.455,-5.985
16.211,-6.450,-5.970
16.214,-6.460,-5.980
16.217,-6.465,-6.015
16.219,-6.470,-6.000
16.222,-6.435,-6.020
16.225,-6.445,-6.025
16.228,-6.455,-6.045
16.231,-6.450,-6.035
16.233,-6.450,-6.050
16.236,-6.445,-6.045
16.239,-6.460,-6.065
16.242,-6.460,-6.055
16.244,-6.465,-6.050
16.247,-6.465,-6.030
16.250,-6.465,-6.040
16.253,-6.460,-6.050
16.256,-6.430,-6.030
16.258,-6.415,-6.040
16.261,-6.410,-6.050
16.264,-6.390,-6.050
16.267,-6.405,-6.055
16.269,-6.395,-6.055
16.272,-6.410,-6.060
16.275,-6.385,-6.045
16.278,-6.365,-6.025
16.281,-6.325,-6.020
16.283,-6.295,-6.005
16.286,-6.275,-5.965
16.289,-6.255,-5.950
16.292,-6.240,-5.950
16.294,-6.230,-5.930
16.297,-6.225,-5.900
16.300,-6.215,-5.895
16.303,-6.210,-5.880
16.306,-6.215,-5.875
16.308,-6.205,-5.850
16.311,-6.210,-5.850
16.314,-6.185,-5.835
16.317,-6.170,-5.815
16.319,-6.135,-5.780
16.322,-6.135,-5.770
16.325,-6.130,-5.745
16.328,-6.130,-5.745
16.331,-6.140,-5.750
16.333,-6.140,-5.755
16.336,-6.155,-5.740
16.339,-6.140,-5.755
