'Elapsed time','V5','V2'
'seconds','mV','mV'
0.000,4.895,5.250
0.004,4.910,5.245
0.008,4.915,5.235
0.012,4.945,5.250
0.016,5.015,5.270
0.020,5.230,5.275
0.024,5.810,5.470
0.028,5.870,5.950
0.032,5.345,5.850
0.036,5.165,5.475
0.040,5.200,5.420
0.044,5.180,5.425
0.048,5.145,5.420
0.052,5.140,5.395
0.056,5.130,5.380
0.060,5.110,5.335
0.064,5.105,5.320
0.068,5.080,5.310
0.072,5.040,5.300
0.076,4.990,5.295
0.080,4.945,5.285
0.084,4.900,5.265
0.088,4.850,5.225
0.092,4.780,5.195
0.096,4.680,5.190
0.100,4.645,5.185
0.104,4.525,5.155
0.108,4.475,5.130
0.112,4.435,5.110
0.116,4.425,5.060
0.120,4.415,4.985
0.124,4.405,4.905
0.128,4.420,4.880
0.132,4.445,4.855
0.136,4.455,4.795
0.140,4.465,4.755
0.144,4.515,4.725
0.148,4.555,4.685
0.152,4.615,4.600
0.156,4.680,4.540
0.160,4.720,4.570
0.164,4.785,4.635
0.168,4.845,4.680
0.172,4.870,4.730
0.176,4.885,4.815
0.180,4.915,4.920
0.184,4.930,4.965
0.188,4.940,4.990
0.192,4.945,5.005
0.196,4.945,5.030
0.200,4.955,5.045
0.204,4.980,5.055
0.208,4.965,5.045
0.212,4.970,5.055
0.216,4.985,5.070
0.220,4.985,5.080
0.224,4.975,5.080
0.228,4.980,5.105
0.232,5.005,5.130
0.236,5.025,5.150
0.240,5.030,5.165
0.244,5.035,5.195
0.248,5.050,5.210
0.252,5.060,5.215
0.256,5.075,5.205
0.260,5.070,5.220
0.264,5.070,5.225
0.268,5.085,5.235
0.272,5.080,5.230
0.276,5.090,5.230
0.280,5.095,5.250
0.284,5.105,5.255
0.288,5.110,5.250
0.292,5.105,5.245
0.296,5.115,5.270
0.300,5.120,5.275
0.304,5.135,5.275
0.308,5.125,5.270
0.312,5.125,5.290
0.316,5.150,5.305
0.320,5.160,5.295
0.324,5.135,5.300
0.328,5.140,5.320
0.332,5.170,5.330
0.336,5.170,5.330
0.340,5.175,5.325
0.344,5.165,5.330
0.348,5.185,5.360
0.352,5.175,5.355
0.356,5.180,5.350
0.360,5.180,5.365
0.364,5.195,5.395
0.368,5.195,5.390
0.372,5.190,5.385
0.376,5.190,5.390
0.380,5.200,5.410
0.384,5.205,5.420
0.388,5.195,5.405
0.392,5.185,5.415
0.396,5.205,5.445
0.400,5.200,5.455
0.404,5.220,5.435
0.408,5.195,5.450
0.412,5.195,5.460
0.416,5.210,5.470
0.420,5.205,5.470
0.424,5.190,5.460
0.428,5.185,5.465
0.432,5.180,5.485
0.436,5.180,5.470
0.440,5.165,5.455
0.444,5.155,5.460
0.448,5.145,5.470
0.452,5.130,5.460
0.456,5.120,5.445
0.460,5.090,5.435
0.464,5.085,5.445
0.468,5.080,5.430
0.472,5.065,5.415
0.476,5.050,5.395
0.480,5.045,5.405
0.484,5.055,5.400
0.488,5.035,5.380
0.492,5.000,5.355
0.496,5.010,5.355
0.500,5.005,5.360
0.504,5.000,5.325
0.508,4.980,5.310
0.512,4.975,5.315
0.516,4.985,5.320
0.520,4.985,5.305
0.524,4.965,5.290
0.528,4.970,5.290
0.532,4.965,5.290
0.536,4.970,5.285
0.540,4.955,5.270
0.544,4.955,5.260
0.548,4.960,5.275
0.552,4.975,5.260
0.556,4.945,5.245
0.560,4.950,5.250
0.564,4.960,5.255
0.568,4.950,5.245
0.572,4.940,5.235
0.576,4.940,5.230
0.580,4.935,5.250
0.584,4.955,5.235
0.588,4.950,5.220
0.592,4.930,5.215
0.596,4.950,5.225
0.600,4.945,5.230
0.604,4.945,5.220
0.608,4.940,5.210
0.612,4.930,5.225
0.616,4.945,5.225
0.620,4.945,5.210
0.624,4.935,5.205
0.628,4.910,5.210
0.632,4.935,5.225
0.636,4.930,5.210
0.640,4.935,5.210
0.644,4.925,5.210
0.648,4.935,5.220
0.652,4.930,5.210
0.656,4.930,5.205
0.660,4.930,5.210
0.664,4.925,5.220
0.668,4.930,5.210
0.672,4.925,5.200
0.676,4.905,5.195
0.680,4.915,5.215
0.684,4.915,5.210
0.688,4.915,5.200
0.692,4.905,5.190
0.696,4.910,5.205
0.700,4.915,5.210
0.704,4.905,5.185
0.708,4.890,5.190
0.712,4.885,5.200
0.716,4.910,5.205
0.720,4.905,5.185
0.724,4.895,5.195
0.728,4.890,5.200
0.732,4.900,5.200
0.736,4.905,5.190
0.740,4.880,5.190
0.744,4.875,5.195
0.748,4.890,5.200
0.752,4.890,5.190
0.756,4.880,5.180
0.760,4.880,5.185
0.764,4.890,5.195
0.768,4.900,5.195
0.772,4.900,5.175
0.776,4.885,5.185
0.780,4.895,5.190
0.784,4.895,5.190
0.788,4.900,5.185
0.792,4.880,5.170
0.796,4.900,5.195
0.800,4.905,5.200
0.804,4.905,5.180
0.808,4.900,5.175
0.812,4.905,5.185
0.816,4.915,5.195
0.820,4.915,5.185
0.824,4.910,5.175
0.828,4.945,5.195
0.832,5.005,5.220
0.836,5.160,5.245
0.840,5.650,5.370
0.844,5.990,5.790
0.848,5.545,6.025
0.852,5.170,5.700
0.856,5.125,5.455
0.860,5.135,5.430
0.864,5.100,5.420
0.868,5.055,5.375
0.872,5.035,5.345
0.876,5.015,5.340
0.880,4.990,5.330
0.884,4.955,5.290
0.888,4.920,5.245
0.892,4.880,5.225
0.896,4.855,5.230
0.900,4.845,5.235
0.904,4.770,5.205
0.908,4.705,5.195
0.912,4.665,5.190
0.916,4.630,5.175
0.920,4.545,5.145
0.924,4.440,5.120
0.928,4.365,5.110
0.932,4.330,5.105
0.936,4.295,5.100
0.940,4.255,5.050
0.944,4.240,5.010
0.948,4.260,4.960
0.952,4.270,4.880
0.956,4.285,4.840
0.960,4.315,4.805
0.964,4.345,4.770
0.968,4.365,4.715
0.972,4.390,4.675
0.976,4.420,4.615
0.980,4.485,4.580
0.984,4.565,4.510
0.988,4.655,4.465
0.992,4.725,4.490
0.996,4.815,4.565
1.000,4.840,4.595
1.004,4.910,4.700
1.008,4.915,4.795
1.012,4.910,4.885
1.016,4.925,4.935
1.020,4.950,4.960
1.024,4.945,4.995
1.028,4.945,5.015
1.032,4.975,5.035
1.036,4.980,5.040
1.040,4.965,5.030
1.044,4.960,5.045
1.048,4.960,5.060
1.052,4.965,5.065
1.056,4.970,5.070
1.060,4.970,5.090
1.064,4.990,5.130
1.068,5.000,5.135
1.072,5.010,5.145
1.076,5.020,5.185
1.080,5.045,5.210
1.084,5.040,5.225
1.088,5.045,5.225
1.092,5.040,5.215
1.096,5.065,5.235
1.100,5.075,5.235
1.104,5.080,5.245
1.108,5.075,5.245
1.112,5.075,5.250
1.116,5.095,5.260
1.120,5.095,5.260
1.124,5.095,5.260
1.128,5.100,5.275
1.132,5.100,5.290
1.136,5.120,5.290
1.140,5.110,5.280
1.144,5.115,5.285
1.148,5.120,5.310
1.152,5.130,5.310
1.156,5.130,5.300
1.160,5.125,5.305
1.164,5.140,5.335
1.168,5.150,5.340
1.172,5.145,5.325
1.176,5.135,5.345
1.180,5.145,5.360
1.184,5.160,5.360
1.188,5.165,5.355
1.192,5.155,5.370
1.196,5.165,5.380
1.200,5.180,5.390
1.204,5.200,5.405
1.208,5.190,5.400
1.212,5.180,5.415
1.216,5.185,5.435
1.220,5.190,5.435
1.224,5.185,5.435
1.228,5.195,5.450
1.232,5.210,5.470
1.236,5.210,5.475
1.240,5.210,5.465
1.244,5.200,5.470
1.248,5.220,5.500
1.252,5.210,5.505
1.256,5.190,5.490
1.260,5.175,5.505
1.264,5.190,5.525
1.268,5.185,5.510
1.272,5.185,5.510
1.276,5.160,5.495
1.280,5.160,5.515
1.284,5.160,5.510
1.288,5.140,5.490
1.292,5.115,5.485
1.296,5.100,5.485
1.300,5.090,5.490
1.304,5.090,5.450
1.308,5.075,5.440
1.312,5.060,5.435
1.316,5.060,5.435
1.320,5.040,5.405
1.324,5.040,5.395
1.328,5.015,5.385
1.332,5.010,5.385
1.336,5.010,5.370
1.340,4.995,5.350
1.344,4.990,5.345
1.348,4.995,5.350
1.352,4.990,5.330
1.356,4.980,5.310
1.360,4.960,5.305
1.364,4.970,5.315
1.368,4.960,5.295
1.372,4.955,5.285
1.376,4.925,5.265
1.380,4.945,5.275
1.384,4.955,5.275
1.388,4.945,5.260
1.392,4.920,5.255
1.396,4.930,5.260
1.400,4.935,5.265
1.404,4.930,5.250
1.408,4.920,5.235
1.412,4.915,5.245
1.416,4.925,5.245
1.420,4.920,5.240
1.424,4.905,5.235
1.428,4.905,5.250
1.432,4.910,5.250
1.436,4.905,5.235
1.440,4.890,5.220
1.444,4.885,5.225
1.448,4.900,5.240
1.452,4.895,5.235
1.456,4.885,5.215
1.460,4.875,5.230
1.464,4.885,5.240
1.468,4.885,5.230
1.472,4.865,5.220
1.476,4.870,5.210
1.480,4.880,5.220
1.484,4.890,5.220
1.488,4.860,5.205
1.492,4.855,5.200
1.496,4.860,5.220
1.500,4.865,5.230
1.504,4.850,5.205
1.508,4.855,5.200
1.512,4.855,5.200
1.516,4.865,5.215
1.520,4.860,5.205
1.524,4.855,5.195
1.528,4.860,5.210
1.532,4.855,5.210
1.536,4.860,5.200
1.540,4.845,5.180
1.544,4.835,5.195
1.548,4.850,5.200
1.552,4.850,5.195
1.556,4.845,5.185
1.560,4.830,5.185
1.564,4.850,5.195
1.568,4.860,5.190
1.572,4.845,5.185
1.576,4.830,5.170
1.580,4.855,5.180
1.584,4.860,5.175
1.588,4.845,5.170
1.592,4.835,5.165
1.596,4.830,5.175
1.600,4.835,5.185
1.604,4.840,5.170
1.608,4.840,5.165
1.612,4.840,5.180
1.616,4.850,5.185
1.620,4.855,5.180
1.624,4.845,5.165
1.628,4.850,5.175
1.632,4.865,5.180
1.636,4.865,5.175
1.640,4.860,5.180
1.644,4.865,5.180
1.648,4.890,5.200
1.652,4.915,5.195
1.656,4.985,5.200
1.660,5.255,5.245
1.664,5.845,5.475
1.668,5.775,5.930
1.672,5.245,5.870
1.676,5.090,5.525
1.680,5.115,5.435
1.684,5.115,5.410
1.688,5.060,5.360
1.692,5.025,5.345
1.696,5.025,5.350
1.700,5.030,5.350
1.704,4.990,5.290
1.708,4.935,5.250
1.712,4.920,5.230
1.716,4.895,5.225
1.720,4.860,5.210
1.724,4.815,5.195
1.728,4.795,5.185
1.732,4.750,5.180
1.736,4.700,5.150
1.740,4.640,5.120
1.744,4.575,5.100
1.748,4.485,5.100
1.752,4.410,5.070
1.756,4.365,5.045
1.760,4.315,5.040
1.764,4.270,5.025
1.768,4.270,4.980
1.772,4.250,4.920
1.776,4.240,4.850
1.780,4.270,4.825
1.784,4.290,4.785
1.788,4.285,4.745
1.792,4.275,4.690
1.796,4.310,4.675
1.800,4.330,4.665
1.804,4.405,4.570
1.808,4.460,4.495
1.812,4.540,4.455
1.816,4.610,4.485
1.820,4.640,4.535
1.824,4.690,4.580
1.828,4.750,4.660
1.832,4.785,4.755
1.836,4.815,4.840
1.840,4.825,4.895
1.844,4.835,4.960
1.848,4.860,5.015
1.852,4.870,5.025
1.856,4.870,5.040
1.860,4.890,5.060
1.864,4.890,5.075
1.868,4.900,5.075
1.872,4.890,5.085
1.876,4.885,5.095
1.880,4.900,5.125
1.884,4.910,5.135
1.888,4.925,5.140
1.892,4.945,5.155
1.896,4.970,5.195
1.900,4.985,5.205
1.904,5.005,5.215
1.908,5.010,5.210
1.912,5.025,5.225
1.916,5.050,5.240
1.920,5.045,5.225
1.924,5.055,5.235
1.928,5.085,5.250
1.932,5.095,5.260
1.936,5.105,5.255
1.940,5.110,5.245
1.944,5.110,5.275
1.948,5.125,5.285
1.952,5.120,5.280
1.956,5.100,5.250
1.960,5.090,5.270
1.964,5.090,5.280
1.968,5.105,5.285
1.972,5.090,5.280
1.976,5.085,5.275
1.980,5.090,5.285
1.984,5.090,5.290
1.988,5.095,5.295
1.992,5.090,5.290
1.996,5.100,5.310
2.000,5.105,5.320
2.004,5.115,5.330
2.008,5.100,5.330
2.012,5.115,5.350
2.016,5.120,5.360
2.020,5.125,5.355
2.024,5.115,5.355
2.028,5.135,5.385
2.032,5.145,5.390
2.036,5.150,5.390
2.040,5.140,5.400
2.044,5.140,5.405
2.048,5.150,5.425
2.052,5.160,5.415
2.056,5.150,5.410
2.060,5.150,5.440
2.064,5.165,5.460
2.068,5.165,5.445
2.072,5.155,5.440
2.076,5.135,5.440
2.080,5.140,5.455
2.084,5.140,5.460
2.088,5.130,5.450
2.092,5.115,5.445
2.096,5.115,5.455
2.100,5.110,5.455
2.104,5.090,5.435
2.108,5.060,5.425
2.112,5.065,5.430
2.116,5.070,5.420
2.120,5.055,5.405
2.124,5.040,5.390
2.128,5.030,5.395
2.132,5.030,5.390
2.136,5.015,5.370
2.140,4.995,5.350
2.144,4.985,5.335
2.148,4.990,5.345
2.152,4.980,5.325
2.156,4.965,5.305
2.160,4.960,5.300
2.164,4.955,5.300
2.168,4.965,5.290
2.172,4.950,5.275
2.176,4.930,5.265
2.180,4.945,5.260
2.184,4.940,5.265
2.188,4.940,5.250
2.192,4.930,5.235
2.196,4.925,5.245
2.200,4.925,5.255
2.204,4.915,5.235
2.208,4.900,5.225
2.212,4.900,5.220
2.216,4.915,5.225
2.220,4.915,5.215
2.224,4.905,5.200
2.228,4.890,5.210
2.232,4.910,5.220
2.236,4.900,5.210
2.240,4.880,5.190
2.244,4.880,5.195
2.248,4.885,5.215
2.252,4.895,5.205
2.256,4.890,5.180
2.260,4.875,5.185
2.264,4.885,5.205
2.268,4.880,5.195
2.272,4.865,5.195
2.276,4.855,5.185
2.280,4.865,5.200
2.284,4.870,5.200
2.288,4.865,5.190
2.292,4.850,5.185
2.296,4.845,5.205
2.300,4.850,5.210
2.304,4.855,5.185
2.308,4.845,5.180
2.312,4.840,5.190
2.316,4.855,5.200
2.320,4.855,5.180
2.324,4.835,5.175
2.328,4.835,5.180
2.332,4.850,5.185
2.336,4.845,5.170
2.340,4.835,5.160
2.344,4.825,5.155
2.348,4.825,5.175
2.352,4.840,5.175
2.356,4.825,5.160
2.360,4.815,5.160
2.364,4.835,5.185
2.368,4.835,5.165
2.372,4.815,5.140
2.376,4.810,5.135
2.380,4.825,5.155
2.384,4.825,5.155
2.388,4.820,5.145
2.392,4.805,5.140
2.396,4.815,5.155
2.400,4.815,5.160
2.404,4.815,5.140
2.408,4.815,5.130
2.412,4.825,5.140
2.416,4.830,5.155
2.420,4.825,5.135
2.424,4.805,5.135
2.428,4.795,5.140
2.432,4.815,5.150
2.436,4.820,5.145
2.440,4.815,5.130
2.444,4.815,5.140
2.448,4.825,5.150
2.452,4.835,5.155
2.456,4.815,5.140
2.460,4.815,5.135
2.464,4.835,5.150
2.468,4.850,5.150
2.472,4.850,5.150
2.476,4.875,5.155
2.480,5.010,5.180
2.484,5.470,5.230
2.488,5.915,5.555
2.492,5.530,5.925
2.496,5.090,5.655
2.500,5.025,5.540
2.504,5.080,5.375
2.508,5.025,5.360
2.512,4.995,5.335
2.516,5.000,5.330
2.520,4.990,5.290
2.524,4.950,5.265
2.528,4.915,5.245
2.532,4.915,5.235
2.536,4.890,5.215
2.540,4.845,5.200
2.544,4.805,5.190
2.548,4.785,5.200
2.552,4.750,5.175
2.556,4.695,5.140
2.560,4.645,5.130
2.564,4.560,5.125
2.568,4.470,5.095
2.572,4.395,5.070
2.576,4.355,5.075
2.580,4.315,5.065
2.584,4.295,5.010
2.588,4.290,4.950
2.592,4.265,4.875
2.596,4.290,4.850
2.600,4.305,4.845
2.604,4.300,4.760
2.608,4.290,4.700
2.612,4.325,4.660
2.616,4.380,4.605
2.620,4.430,4.535
2.624,4.495,4.465
2.628,4.565,4.460
2.632,4.645,4.540
2.636,4.695,4.605
2.640,4.725,4.665
2.644,4.765,4.765
2.648,4.795,4.860
2.652,4.815,4.900
2.656,4.810,4.930
2.660,4.820,4.975
2.664,4.850,4.990
2.668,4.860,4.995
2.672,4.870,5.000
2.676,4.865,4.995
2.680,4.870,5.005
2.684,4.880,5.025
2.688,4.880,5.035
2.692,4.890,5.055
2.696,4.905,5.065
2.700,4.915,5.080
2.704,4.940,5.115
2.708,4.930,5.135
2.712,4.950,5.155
2.716,4.975,5.170
2.720,4.980,5.175
2.724,4.970,5.165
2.728,4.980,5.185
2.732,4.990,5.195
2.736,4.995,5.195
2.740,4.990,5.190
2.744,4.985,5.205
2.748,5.005,5.220
2.752,5.010,5.215
2.756,5.000,5.210
2.760,5.000,5.230
2.764,5.010,5.245
2.768,5.025,5.255
2.772,5.015,5.250
2.776,5.010,5.255
2.780,5.015,5.295
2.784,5.020,5.300
2.788,5.025,5.305
2.792,5.020,5.320
2.796,5.030,5.335
2.800,5.040,5.345
2.804,5.050,5.340
2.808,5.035,5.330
2.812,5.055,5.350
2.816,5.075,5.360
2.820,5.075,5.355
2.824,5.095,5.360
2.828,5.105,5.380
2.832,5.120,5.395
2.836,5.130,5.390
2.840,5.130,5.400
2.844,5.150,5.410
2.848,5.175,5.430
2.852,5.190,5.435
2.856,5.195,5.435
2.860,5.190,5.460
2.864,5.190,5.480
2.868,5.190,5.480
2.872,5.170,5.450
2.876,5.140,5.460
2.880,5.145,5.475
2.884,5.145,5.490
2.888,5.120,5.465
2.892,5.090,5.460
2.896,5.085,5.460
2.900,5.085,5.465
2.904,5.050,5.435
2.908,5.015,5.435
2.912,5.015,5.410
2.916,5.005,5.410
2.920,4.995,5.395
2.924,4.975,5.370
2.928,4.970,5.370
2.932,4.975,5.365
2.936,4.965,5.345
2.940,4.945,5.335
2.944,4.935,5.325
2.948,4.935,5.320
2.952,4.925,5.305
2.956,4.910,5.275
2.960,4.900,5.285
2.964,4.905,5.280
2.968,4.915,5.270
2.972,4.905,5.260
2.976,4.890,5.240
2.980,4.900,5.255
2.984,4.900,5.250
2.988,4.890,5.230
2.992,4.880,5.225
2.996,4.895,5.235
3.000,4.900,5.240
3.004,4.870,5.215
3.008,4.855,5.205
3.012,4.855,5.205
3.016,4.865,5.220
3.020,4.865,5.210
3.024,4.850,5.190
3.028,4.855,5.200
3.032,4.865,5.200
3.036,4.855,5.195
3.040,4.845,5.185
3.044,4.840,5.180
3.048,4.850,5.195
3.052,4.845,5.180
3.056,4.845,5.180
3.060,4.825,5.185
3.064,4.835,5.185
3.068,4.845,5.185
3.072,4.830,5.170
3.076,4.815,5.170
3.080,4.825,5.180
3.084,4.840,5.190
3.088,4.820,5.170
3.092,4.805,5.165
3.096,4.825,5.175
3.100,4.825,5.165
3.104,4.810,5.165
3.108,4.800,5.160
3.112,4.810,5.175
3.116,4.805,5.180
3.120,4.805,5.165
3.124,4.790,5.150
3.128,4.795,5.160
3.132,4.800,5.165
3.136,4.800,5.155
3.140,4.785,5.150
3.144,4.775,5.155
3.148,4.790,5.170
3.152,4.795,5.160
3.156,4.780,5.135
3.160,4.770,5.155
3.164,4.775,5.170
3.168,4.785,5.160
3.172,4.770,5.140
3.176,4.765,5.140
3.180,4.780,5.160
3.184,4.800,5.155
3.188,4.775,5.140
3.192,4.760,5.150
3.196,4.785,5.155
3.200,4.785,5.160
3.204,4.785,5.140
3.208,4.775,5.135
3.212,4.775,5.150
3.216,4.790,5.160
3.220,4.780,5.145
3.224,4.775,5.135
3.228,4.780,5.150
3.232,4.790,5.145
3.236,4.790,5.150
3.240,4.790,5.140
3.244,4.790,5.155
3.248,4.805,5.160
3.252,4.830,5.165
3.256,4.860,5.160
3.260,5.015,5.200
3.264,5.520,5.315
3.268,5.845,5.725
3.272,5.390,5.960
3.276,5.030,5.610
3.280,5.025,5.400
3.284,5.050,5.365
3.288,4.985,5.355
3.292,4.940,5.325
3.296,4.940,5.330
3.300,4.940,5.330
3.304,4.885,5.250
3.308,4.845,5.215
3.312,4.820,5.210
3.316,4.805,5.215
3.320,4.770,5.200
3.324,4.720,5.180
3.328,4.680,5.170
3.332,4.655,5.140
3.336,4.580,5.110
3.340,4.460,5.085
3.344,4.380,5.080
3.348,4.340,5.075
3.352,4.300,5.060
3.356,4.260,5.005
3.360,4.240,4.950
3.364,4.250,4.895
3.368,4.260,4.840
3.372,4.260,4.795
3.376,4.260,4.750
3.380,4.275,4.710
3.384,4.300,4.655
3.388,4.350,4.585
3.392,4.405,4.515
3.396,4.480,4.465
3.400,4.505,4.450
3.404,4.620,4.530
3.408,4.660,4.595
3.412,4.725,4.680
3.416,4.765,4.785
3.420,4.775,4.855
3.424,4.775,4.900
3.428,4.800,4.955
3.432,4.820,4.990
3.436,4.830,4.985
3.440,4.835,4.975
3.444,4.850,4.990
3.448,4.855,5.015
3.452,4.850,5.015
3.456,4.845,5.015
3.460,4.855,5.040
3.464,4.875,5.075
3.468,4.895,5.075
3.472,4.905,5.095
3.476,4.900,5.140
3.480,4.920,5.170
3.484,4.925,5.180
3.488,4.935,5.170
3.492,4.940,5.180
3.496,4.945,5.195
3.500,4.940,5.205
3.504,4.955,5.205
3.508,4.955,5.210
3.512,4.965,5.215
3.516,4.970,5.225
3.520,4.975,5.235
3.524,4.965,5.220
3.528,4.975,5.235
3.532,4.985,5.250
3.536,4.990,5.240
3.540,4.975,5.235
3.544,4.975,5.265
3.548,5.005,5.275
3.552,5.010,5.270
3.556,4.995,5.265
3.560,5.015,5.280
3.564,5.025,5.305
3.568,5.040,5.300
3.572,5.040,5.300
3.576,5.020,5.320
3.580,5.045,5.325
3.584,5.055,5.350
3.588,5.065,5.340
3.592,5.060,5.340
3.596,5.075,5.365
3.600,5.080,5.380
3.604,5.070,5.370
3.608,5.075,5.380
3.612,5.090,5.395
3.616,5.105,5.420
3.620,5.100,5.430
3.624,5.100,5.430
3.628,5.100,5.450
3.632,5.115,5.465
3.636,5.115,5.460
3.640,5.100,5.460
3.644,5.095,5.475
3.648,5.105,5.495
3.652,5.095,5.485
3.656,5.080,5.480
3.660,5.070,5.485
3.664,5.070,5.500
3.668,5.060,5.490
3.672,5.030,5.480
3.676,5.010,5.470
3.680,5.005,5.480
3.684,4.995,5.465
3.688,4.975,5.455
3.692,4.950,5.435
3.696,4.955,5.445
3.700,4.950,5.450
3.704,4.935,5.395
3.708,4.920,5.375
3.712,4.930,5.370
3.716,4.935,5.360
3.720,4.930,5.330
3.724,4.920,5.315
3.728,4.930,5.320
3.732,4.940,5.305
3.736,4.935,5.295
3.740,4.930,5.280
3.744,4.925,5.275
3.748,4.945,5.270
3.752,4.950,5.265
3.756,4.940,5.250
3.760,4.930,5.255
3.764,4.925,5.260
3.768,4.910,5.245
3.772,4.900,5.220
3.776,4.870,5.215
3.780,4.890,5.230
3.784,4.885,5.210
3.788,4.860,5.190
3.792,4.840,5.185
3.796,4.855,5.200
3.800,4.860,5.195
3.804,4.845,5.175
3.808,4.835,5.160
3.812,4.830,5.180
3.816,4.845,5.180
3.820,4.840,5.165
3.824,4.830,5.160
3.828,4.840,5.165
3.832,4.835,5.175
3.836,4.830,5.165
3.840,4.820,5.150
3.844,4.815,5.150
3.848,4.820,5.170
3.852,4.825,5.160
3.856,4.810,5.150
3.860,4.815,5.160
3.864,4.825,5.165
3.868,4.825,5.160
3.872,4.815,5.145
3.876,4.805,5.130
3.880,4.810,5.140
3.884,4.810,5.150
3.888,4.805,5.140
3.892,4.805,5.125
3.896,4.805,5.135
3.900,4.810,5.140
3.904,4.800,5.135
3.908,4.800,5.125
3.912,4.805,5.135
3.916,4.820,5.140
3.920,4.820,5.130
3.924,4.805,5.115
3.928,4.795,5.135
3.932,4.810,5.135
3.936,4.810,5.130
3.940,4.810,5.115
3.944,4.810,5.120
3.948,4.820,5.135
3.952,4.815,5.130
3.956,4.810,5.120
3.960,4.805,5.125
3.964,4.815,5.130
3.968,4.820,5.125
3.972,4.815,5.115
3.976,4.810,5.115
3.980,4.820,5.135
3.984,4.825,5.135
3.988,4.815,5.115
3.992,4.810,5.115
3.996,4.820,5.130
4.000,4.825,5.135
4.004,4.825,5.130
4.008,4.820,5.125
4.012,4.830,5.135
4.016,4.865,5.145
4.020,4.875,5.145
4.024,4.900,5.150
4.028,5.010,5.190
4.032,5.470,5.255
4.036,5.990,5.560
4.040,5.620,5.935
4.044,5.265,5.740
4.048,5.315,5.525
4.052,5.435,5.505
4.056,5.475,5.500
4.060,5.565,5.515
4.064,5.735,5.545
4.068,5.930,5.580
4.072,6.090,5.630
4.076,6.160,5.690
4.080,6.125,5.680
4.084,5.905,5.525
4.088,5.630,5.245
4.092,5.390,4.980
4.096,5.220,4.835
4.100,5.170,4.800
4.104,4.900,4.775
4.108,4.795,4.815
4.112,4.745,4.885
4.116,4.735,4.985
4.120,4.715,5.045
4.124,4.715,5.070
4.128,4.740,5.080
4.132,4.740,5.095
4.136,4.740,5.085
4.140,4.725,5.065
4.144,4.730,5.070
4.148,4.745,5.065
4.152,4.735,5.065
4.156,4.715,5.030
4.160,4.705,5.050
4.164,4.720,5.050
4.168,4.725,5.060
4.172,4.730,5.035
4.176,4.715,5.040
4.180,4.720,5.045
4.184,4.715,5.045
4.188,4.705,5.025
4.192,4.690,5.035
4.196,4.695,5.040
4.200,4.700,5.045
4.204,4.690,5.040
4.208,4.680,5.020
4.212,4.670,5.040
4.216,4.685,5.040
4.220,4.670,5.030
4.224,4.660,5.015
4.228,4.665,5.020
4.232,4.665,5.025
4.236,4.665,5.015
4.240,4.635,5.000
4.244,4.635,5.005
4.248,4.635,5.010
4.252,4.640,5.010
4.256,4.615,4.990
4.260,4.610,4.990
4.264,4.625,5.005
4.268,4.625,5.000
4.272,4.620,4.985
4.276,4.600,4.975
4.280,4.605,4.990
4.284,4.620,4.985
4.288,4.605,4.965
4.292,4.585,4.970
4.296,4.605,4.990
4.300,4.615,5.000
4.304,4.605,4.970
4.308,4.590,4.960
4.312,4.600,4.990
4.316,4.610,4.990
4.320,4.605,4.965
4.324,4.585,4.960
4.328,4.590,4.970
4.332,4.610,4.990
4.336,4.610,4.985
4.340,4.615,4.960
4.344,4.605,4.980
4.348,4.630,5.000
4.352,4.625,4.995
4.356,4.615,4.995
4.360,4.630,4.995
4.364,4.650,5.025
4.368,4.640,5.030
4.372,4.650,5.025
4.376,4.655,5.035
4.380,4.675,5.075
4.384,4.690,5.075
4.388,4.700,5.085
4.392,4.710,5.095
4.396,4.730,5.110
4.400,4.735,5.120
4.404,4.740,5.125
4.408,4.730,5.135
4.412,4.750,5.165
4.416,4.775,5.175
4.420,4.785,5.180
4.424,4.780,5.175
4.428,4.790,5.195
4.432,4.800,5.200
4.436,4.805,5.195
4.440,4.790,5.195
4.444,4.800,5.195
4.448,4.805,5.210
4.452,4.805,5.210
4.456,4.800,5.195
4.460,4.800,5.200
4.464,4.810,5.210
4.468,4.820,5.210
4.472,4.805,5.180
4.476,4.795,5.185
4.480,4.790,5.200
4.484,4.795,5.205
4.488,4.790,5.180
4.492,4.780,5.185
4.496,4.795,5.190
4.500,4.800,5.195
4.504,4.780,5.180
4.508,4.775,5.170
4.512,4.795,5.175
4.516,4.795,5.180
4.520,4.790,5.170
4.524,4.775,5.155
4.528,4.765,5.175
4.532,4.785,5.185
4.536,4.785,5.175
4.540,4.775,5.170
4.544,4.775,5.175
4.548,4.785,5.185
4.552,4.775,5.175
4.556,4.765,5.170
4.560,4.770,5.170
4.564,4.780,5.180
4.568,4.775,5.175
4.572,4.765,5.170
4.576,4.755,5.170
4.580,4.770,5.185
4.584,4.775,5.190
4.588,4.770,5.180
4.592,4.760,5.190
4.596,4.770,5.200
4.600,4.780,5.205
4.604,4.760,5.205
4.608,4.755,5.190
4.612,4.765,5.205
4.616,4.770,5.205
4.620,4.765,5.200
4.624,4.760,5.185
4.628,4.755,5.195
4.632,4.785,5.205
4.636,4.790,5.190
4.640,4.790,5.175
4.644,4.800,5.180
4.648,4.810,5.170
4.652,4.815,5.175
4.656,4.810,5.175
4.660,4.815,5.160
4.664,4.830,5.175
4.668,4.830,5.165
4.672,4.830,5.160
4.676,4.845,5.160
4.680,4.870,5.165
4.684,4.875,5.160
4.688,4.875,5.155
4.692,4.865,5.160
4.696,4.880,5.180
4.700,4.875,5.185
4.704,4.855,5.165
4.708,4.820,5.155
4.712,4.825,5.160
4.716,4.835,5.165
4.720,4.825,5.145
4.724,4.805,5.135
4.728,4.795,5.135
4.732,4.810,5.145
4.736,4.810,5.125
4.740,4.790,5.120
4.744,4.795,5.135
4.748,4.800,5.125
4.752,4.795,5.130
4.756,4.805,5.115
4.760,4.800,5.120
4.764,4.810,5.135
4.768,4.805,5.130
4.772,4.800,5.105
4.776,4.795,5.125
4.780,4.810,5.135
4.784,4.815,5.130
4.788,4.800,5.120
4.792,4.790,5.120
4.796,4.805,5.130
4.800,4.810,5.135
4.804,4.815,5.125
4.808,4.800,5.120
4.812,4.810,5.140
4.816,4.825,5.145
4.820,4.825,5.140
4.824,4.815,5.125
4.828,4.825,5.145
4.832,4.835,5.145
4.836,4.835,5.145
4.840,4.830,5.135
4.844,4.830,5.150
4.848,4.845,5.155
4.852,4.860,5.155
4.856,4.860,5.145
4.860,4.855,5.175
4.864,4.880,5.210
4.868,4.925,5.225
4.872,5.035,5.250
4.876,5.430,5.325
4.880,6.035,5.595
4.884,5.920,6.050
4.888,5.540,5.975
4.892,5.495,5.655
4.896,5.645,5.605
4.900,5.700,5.595
4.904,5.945,5.605
4.908,6.110,5.660
4.912,6.220,5.740
4.916,6.220,5.740
4.920,6.020,5.605
4.924,5.750,5.365
4.928,5.520,5.095
4.932,5.335,4.905
4.936,5.145,4.810
4.940,4.950,4.800
4.944,4.845,4.850
4.948,4.810,4.910
4.952,4.785,4.960
4.956,4.765,5.040
4.960,4.765,5.105
4.964,4.785,5.125
4.968,4.795,5.125
4.972,4.780,5.115
4.976,4.770,5.120
4.980,4.770,5.130
4.984,4.770,5.120
4.988,4.760,5.095
4.992,4.745,5.090
4.996,4.750,5.105
5.000,4.760,5.105
5.004,4.760,5.075
5.008,4.750,5.080
5.012,4.745,5.095
5.016,4.750,5.095
5.020,4.755,5.085
5.024,4.730,5.065
5.028,4.730,5.090
5.032,4.735,5.085
5.036,4.730,5.075
5.040,4.710,5.060
5.044,4.705,5.070
5.048,4.715,5.080
5.052,4.715,5.070
5.056,4.695,5.055
5.060,4.680,5.055
5.064,4.695,5.070
5.068,4.685,5.065
5.072,4.675,5.045
5.076,4.675,5.050
5.080,4.675,5.050
5.084,4.695,5.060
5.088,4.680,5.050
5.092,4.650,5.050
5.096,4.670,5.050
5.100,4.670,5.055
5.104,4.660,5.030
5.108,4.645,5.020
5.112,4.650,5.040
5.116,4.660,5.040
5.120,4.655,5.030
5.124,4.650,5.015
5.128,4.655,5.025
5.132,4.660,5.030
5.136,4.640,5.030
5.140,4.635,5.015
5.144,4.640,5.025
5.148,4.645,5.045
5.152,4.650,5.030
5.156,4.650,5.010
5.160,4.650,5.025
5.164,4.670,5.045
5.168,4.665,5.045
5.172,4.660,5.040
5.176,4.665,5.045
5.180,4.675,5.050
5.184,4.685,5.060
5.188,4.675,5.060
5.192,4.685,5.070
5.196,4.705,5.095
5.200,4.710,5.100
5.204,4.725,5.105
5.208,4.725,5.100
5.212,4.750,5.130
5.216,4.760,5.135
5.220,4.770,5.145
5.224,4.765,5.140
5.228,4.785,5.180
5.232,4.805,5.190
5.236,4.810,5.190
5.240,4.820,5.185
5.244,4.815,5.210
5.248,4.850,5.220
5.252,4.840,5.230
5.256,4.840,5.210
5.260,4.835,5.225
5.264,4.845,5.250
5.268,4.855,5.250
5.272,4.845,5.225
5.276,4.845,5.230
5.280,4.860,5.245
5.284,4.855,5.240
5.288,4.855,5.215
5.292,4.845,5.225
5.296,4.850,5.230
5.300,4.860,5.235
5.304,4.840,5.205
5.308,4.840,5.205
5.312,4.835,5.205
5.316,4.850,5.215
5.320,4.850,5.200
5.324,4.830,5.195
5.328,4.825,5.200
5.332,4.845,5.205
5.336,4.840,5.205
5.340,4.820,5.180
5.344,4.825,5.185
5.348,4.835,5.195
5.352,4.835,5.190
5.356,4.810,5.185
5.360,4.805,5.185
5.364,4.830,5.195
5.368,4.820,5.195
5.372,4.805,5.170
5.376,4.795,5.180
5.380,4.800,5.190
5.384,4.795,5.195
5.388,4.795,5.175
5.392,4.790,5.165
5.396,4.805,5.195
5.400,4.805,5.205
5.404,4.805,5.180
5.408,4.805,5.170
5.412,4.810,5.190
5.416,4.810,5.205
5.420,4.805,5.185
5.424,4.805,5.180
5.428,4.795,5.200
5.432,4.820,5.195
5.436,4.810,5.195
5.440,4.820,5.185
5.444,4.815,5.195
5.448,4.820,5.200
5.452,4.830,5.200
5.456,4.815,5.185
5.460,4.810,5.195
5.464,4.825,5.195
5.468,4.835,5.190
5.472,4.835,5.180
5.476,4.825,5.185
5.480,4.850,5.195
5.484,4.840,5.190
5.488,4.830,5.190
5.492,4.825,5.175
5.496,4.830,5.190
5.500,4.835,5.190
5.504,4.845,5.180
5.508,4.835,5.175
5.512,4.840,5.175
5.516,4.850,5.180
5.520,4.835,5.160
5.524,4.825,5.160
5.528,4.830,5.170
5.532,4.840,5.190
5.536,4.845,5.190
5.540,4.835,5.170
5.544,4.830,5.175
5.548,4.835,5.185
5.552,4.815,5.185
5.556,4.810,5.165
5.560,4.820,5.185
5.564,4.825,5.210
5.568,4.830,5.200
5.572,4.810,5.185
5.576,4.800,5.185
5.580,4.810,5.195
5.584,4.810,5.210
5.588,4.810,5.175
5.592,4.810,5.175
5.596,4.840,5.185
5.600,4.850,5.185
5.604,4.860,5.175
5.608,4.855,5.165
5.612,4.870,5.185
5.616,4.880,5.180
5.620,4.880,5.165
5.624,4.880,5.165
5.628,4.890,5.180
5.632,4.910,5.185
5.636,4.915,5.170
5.640,4.920,5.155
5.644,4.925,5.165
5.648,4.935,5.175
5.652,4.930,5.175
5.656,4.910,5.170
5.660,4.900,5.170
5.664,4.910,5.175
5.668,4.910,5.165
5.672,4.880,5.150
5.676,4.870,5.160
5.680,4.880,5.160
5.684,4.885,5.170
5.688,4.875,5.145
5.692,4.875,5.150
5.696,4.905,5.160
5.700,4.915,5.165
5.704,4.995,5.165
5.708,5.205,5.165
5.712,5.780,5.275
5.716,5.940,5.665
5.720,5.390,5.910
5.724,5.080,5.585
5.728,5.095,5.385
5.732,5.110,5.375
5.736,5.055,5.330
5.740,5.040,5.300
5.744,5.030,5.305
5.748,5.030,5.295
5.752,5.010,5.260
5.756,4.985,5.225
5.760,4.945,5.210
5.764,4.915,5.175
5.768,4.890,5.175
5.772,4.855,5.160
5.776,4.805,5.165
5.780,4.755,5.165
5.784,4.710,5.135
5.788,4.655,5.100
5.792,4.585,5.085
5.796,4.485,5.075
5.800,4.460,5.075
5.804,4.385,5.050
5.808,4.340,5.035
5.812,4.340,5.005
5.816,4.375,4.955
5.820,4.405,4.905
5.824,4.420,4.865
5.828,4.455,4.860
5.832,4.520,4.900
5.836,4.585,4.915
5.840,4.660,4.950
5.844,4.750,4.975
5.848,4.825,4.990
5.852,4.865,4.925
5.856,4.885,4.825
5.860,4.855,4.780
5.864,4.840,4.745
5.868,4.840,4.750
5.872,4.835,4.770
5.876,4.830,4.860
5.880,4.850,4.960
5.884,4.875,5.050
5.888,4.880,5.095
5.892,4.875,5.130
5.896,4.895,5.160
5.900,4.905,5.160
5.904,4.920,5.160
5.908,4.930,5.150
5.912,4.955,5.160
5.916,4.970,5.170
5.920,4.975,5.165
5.924,4.985,5.150
5.928,4.990,5.160
5.932,5.000,5.170
5.936,5.005,5.170
5.940,5.005,5.160
5.944,5.005,5.180
5.948,5.025,5.190
5.952,5.025,5.170
5.956,5.025,5.155
5.960,5.030,5.175
5.964,5.055,5.195
5.968,5.050,5.190
5.972,5.050,5.180
5.976,5.045,5.180
5.980,5.065,5.200
5.984,5.070,5.195
5.988,5.070,5.185
5.992,5.050,5.185
5.996,5.085,5.210
6.000,5.100,5.215
6.004,5.105,5.210
6.008,5.095,5.205
6.012,5.100,5.220
6.016,5.110,5.230
6.020,5.115,5.230
6.024,5.115,5.220
6.028,5.120,5.240
6.032,5.130,5.250
6.036,5.140,5.245
6.040,5.135,5.235
6.044,5.135,5.255
6.048,5.145,5.265
6.052,5.150,5.270
6.056,5.140,5.265
6.060,5.150,5.280
6.064,5.170,5.305
6.068,5.165,5.305
6.072,5.155,5.295
6.076,5.150,5.295
6.080,5.160,5.305
6.084,5.165,5.320
6.088,5.160,5.310
6.092,5.140,5.305
6.096,5.155,5.315
6.100,5.150,5.320
6.104,5.140,5.305
6.108,5.125,5.305
6.112,5.120,5.320
6.116,5.125,5.330
6.120,5.105,5.315
6.124,5.100,5.300
6.128,5.085,5.325
6.132,5.100,5.315
6.136,5.085,5.305
6.140,5.050,5.295
6.144,5.045,5.300
6.148,5.045,5.315
6.152,5.025,5.295
6.156,5.020,5.285
6.160,5.000,5.285
6.164,5.005,5.295
6.168,5.000,5.280
6.172,4.965,5.255
6.176,4.965,5.265
6.180,4.965,5.280
6.184,4.960,5.265
6.188,4.945,5.250
6.192,4.950,5.235
6.196,4.950,5.250
6.200,4.960,5.245
6.204,4.925,5.230
6.208,4.915,5.225
6.212,4.910,5.235
6.216,4.925,5.235
6.220,4.920,5.210
6.224,4.915,5.205
6.228,4.920,5.215
6.232,4.920,5.220
6.236,4.910,5.205
6.240,4.900,5.195
6.244,4.905,5.195
6.248,4.915,5.210
6.252,4.910,5.195
6.256,4.910,5.175
6.260,4.895,5.190
6.264,4.905,5.200
6.268,4.905,5.195
6.272,4.910,5.185
6.276,4.895,5.180
6.280,4.915,5.195
6.284,4.925,5.205
6.288,4.915,5.185
6.292,4.905,5.185
6.296,4.905,5.200
6.300,4.910,5.205
6.304,4.905,5.180
6.308,4.890,5.175
6.312,4.890,5.205
6.316,4.905,5.190
6.320,4.900,5.190
6.324,4.890,5.180
6.328,4.895,5.185
6.332,4.905,5.195
6.336,4.900,5.185
6.340,4.890,5.175
6.344,4.885,5.180
6.348,4.890,5.180
6.352,4.895,5.185
6.356,4.880,5.165
6.360,4.880,5.175
6.364,4.885,5.185
6.368,4.885,5.175
6.372,4.880,5.175
6.376,4.865,5.175
6.380,4.875,5.175
6.384,4.870,5.180
6.388,4.865,5.160
6.392,4.860,5.155
6.396,4.870,5.175
6.400,4.875,5.180
6.404,4.860,5.170
6.408,4.860,5.165
6.412,4.870,5.170
6.416,4.875,5.170
6.420,4.870,5.160
6.424,4.855,5.155
6.428,4.865,5.170
6.432,4.865,5.170
6.436,4.865,5.155
6.440,4.855,5.150
6.444,4.845,5.155
6.448,4.870,5.170
6.452,4.860,5.155
6.456,4.835,5.145
6.460,4.845,5.160
6.464,4.865,5.160
6.468,4.855,5.155
6.472,4.855,5.145
6.476,4.845,5.145
6.480,4.860,5.160
6.484,4.875,5.170
6.488,4.855,5.150
6.492,4.840,5.155
6.496,4.860,5.180
6.500,4.865,5.185
6.504,4.855,5.175
6.508,4.850,5.170
6.512,4.855,5.195
6.516,4.885,5.210
6.520,4.925,5.205
6.524,5.045,5.225
6.528,5.520,5.345
6.532,5.845,5.780
6.536,5.415,5.985
6.540,5.110,5.600
6.544,5.120,5.400
6.548,5.145,5.400
6.552,5.110,5.355
6.556,5.070,5.330
6.560,5.060,5.330
6.564,5.075,5.320
6.568,5.045,5.285
6.572,5.030,5.220
6.576,5.015,5.205
6.580,4.995,5.215
6.584,4.965,5.215
6.588,4.920,5.205
6.592,4.855,5.175
6.596,4.815,5.155
6.600,4.805,5.140
6.604,4.680,5.110
6.608,4.570,5.085
6.612,4.500,5.090
6.616,4.460,5.055
6.620,4.415,5.040
6.624,4.365,4.990
6.628,4.360,4.950
6.632,4.355,4.885
6.636,4.345,4.810
6.640,4.350,4.770
6.644,4.370,4.740
6.648,4.380,4.710
6.652,4.400,4.660
6.656,4.415,4.635
6.660,4.460,4.600
6.664,4.530,4.540
6.668,4.585,4.475
6.672,4.635,4.450
6.676,4.675,4.505
6.680,4.725,4.560
6.684,4.780,4.615
6.688,4.805,4.670
6.692,4.830,4.755
6.696,4.850,4.835
6.700,4.860,4.855
6.704,4.860,4.910
6.708,4.860,4.930
6.712,4.880,4.970
6.716,4.895,4.985
6.720,4.905,4.985
6.724,4.885,4.990
6.728,4.900,5.010
6.732,4.910,5.025
6.736,4.905,5.035
6.740,4.895,5.030
6.744,4.900,5.050
6.748,4.930,5.080
6.752,4.930,5.095
6.756,4.925,5.110
6.760,4.950,5.140
6.764,4.970,5.155
6.768,4.970,5.165
6.772,4.980,5.155
6.776,4.980,5.160
6.780,4.990,5.185
6.784,5.000,5.185
6.788,4.990,5.175
6.792,4.995,5.190
6.796,5.005,5.205
6.800,5.020,5.205
6.804,5.020,5.200
6.808,5.015,5.190
6.812,5.020,5.215
6.816,5.035,5.220
6.820,5.035,5.215
6.824,5.035,5.215
6.828,5.045,5.235
6.832,5.050,5.245
6.836,5.050,5.245
6.840,5.040,5.240
6.844,5.050,5.255
6.848,5.055,5.280
6.852,5.055,5.265
6.856,5.040,5.260
6.860,5.055,5.270
6.864,5.090,5.285
6.868,5.080,5.300
6.872,5.085,5.295
6.876,5.085,5.305
6.880,5.090,5.320
6.884,5.100,5.330
6.888,5.095,5.325
6.892,5.085,5.335
6.896,5.105,5.350
6.900,5.105,5.355
6.904,5.100,5.360
6.908,5.095,5.365
6.912,5.110,5.380
6.916,5.115,5.385
6.920,5.115,5.395
6.924,5.110,5.390
6.928,5.115,5.400
6.932,5.120,5.415
6.936,5.115,5.420
6.940,5.105,5.410
6.944,5.105,5.425
6.948,5.105,5.435
6.952,5.090,5.425
6.956,5.085,5.410
6.960,5.075,5.430
6.964,5.085,5.435
6.968,5.080,5.415
6.972,5.050,5.400
6.976,5.040,5.395
6.980,5.030,5.410
6.984,5.035,5.410
6.988,5.005,5.385
6.992,4.980,5.380
6.996,4.980,5.380
7.000,4.980,5.380
7.004,4.965,5.340
7.008,4.935,5.330
7.012,4.935,5.345
7.016,4.935,5.330
7.020,4.930,5.315
7.024,4.915,5.295
7.028,4.910,5.300
7.032,4.920,5.300
7.036,4.920,5.280
7.040,4.905,5.255
7.044,4.900,5.260
7.048,4.895,5.255
7.052,4.900,5.250
7.056,4.885,5.215
7.060,4.885,5.230
7.064,4.895,5.240
7.068,4.890,5.230
7.072,4.875,5.215
7.076,4.885,5.210
7.080,4.885,5.205
7.084,4.885,5.195
7.088,4.875,5.185
7.092,4.870,5.175
7.096,4.875,5.185
7.100,4.880,5.190
7.104,4.870,5.180
7.108,4.865,5.170
7.112,4.865,5.185
7.116,4.880,5.190
7.120,4.875,5.175
7.124,4.855,5.165
7.128,4.840,5.165
7.132,4.865,5.170
7.136,4.865,5.170
7.140,4.840,5.155
7.144,4.840,5.165
7.148,4.850,5.180
7.152,4.855,5.170
7.156,4.845,5.150
7.160,4.840,5.155
7.164,4.850,5.165
7.168,4.845,5.160
7.172,4.835,5.160
7.176,4.835,5.160
7.180,4.845,5.165
7.184,4.850,5.165
7.188,4.835,5.145
7.192,4.820,5.145
7.196,4.835,5.155
7.200,4.845,5.160
7.204,4.830,5.150
7.208,4.810,5.130
7.212,4.805,5.150
7.216,4.820,5.160
7.220,4.815,5.140
7.224,4.810,5.130
7.228,4.805,5.145
7.232,4.820,5.140
7.236,4.815,5.135
7.240,4.790,5.120
7.244,4.795,5.125
7.248,4.805,5.140
7.252,4.810,5.140
7.256,4.800,5.120
7.260,4.795,5.120
7.264,4.805,5.130
7.268,4.800,5.120
7.272,4.785,5.120
7.276,4.785,5.125
7.280,4.795,5.135
7.284,4.805,5.140
7.288,4.795,5.110
7.292,4.790,5.115
7.296,4.800,5.130
7.300,4.805,5.135
7.304,4.800,5.115
7.308,4.795,5.120
7.312,4.800,5.130
7.316,4.805,5.130
7.320,4.815,5.120
7.324,4.815,5.115
7.328,4.815,5.140
7.332,4.830,5.140
7.336,4.830,5.130
7.340,4.860,5.130
7.344,4.945,5.155
7.348,5.305,5.195
7.352,5.880,5.400
7.356,5.725,5.830
7.360,5.165,5.780
7.364,5.030,5.445
7.368,5.075,5.360
7.372,5.020,5.340
7.376,4.975,5.320
7.380,4.985,5.310
7.384,4.985,5.305
7.388,4.945,5.260
7.392,4.915,5.235
7.396,4.900,5.220
7.400,4.890,5.215
7.404,4.830,5.195
7.408,4.800,5.190
7.412,4.770,5.195
7.416,4.730,5.185
7.420,4.685,5.165
7.424,4.635,5.135
7.428,4.540,5.140
7.432,4.445,5.130
7.436,4.385,5.105
7.440,4.330,5.075
7.444,4.290,5.075
7.448,4.275,5.045
7.452,4.270,4.980
7.456,4.265,4.895
7.460,4.275,4.850
7.464,4.325,4.825
7.468,4.320,4.785
7.472,4.320,4.720
7.476,4.335,4.665
7.480,4.380,4.630
7.484,4.425,4.570
7.488,4.490,4.490
7.492,4.560,4.445
7.496,4.660,4.475
7.500,4.680,4.500
7.504,4.755,4.600
7.508,4.790,4.700
7.512,4.835,4.800
7.516,4.850,4.870
7.520,4.835,4.910
7.524,4.830,4.930
7.528,4.850,4.960
7.532,4.860,4.985
7.536,4.860,4.975
7.540,4.855,4.965
7.544,4.850,4.990
7.548,4.845,5.000
7.552,4.850,4.995
7.556,4.855,5.000
7.560,4.850,5.015
7.564,4.870,5.055
7.568,4.885,5.060
7.572,4.885,5.065
7.576,4.890,5.100
7.580,4.915,5.130
7.584,4.930,5.145
7.588,4.925,5.150
7.592,4.930,5.150
7.596,4.950,5.175
7.600,4.955,5.170
7.604,4.950,5.165
7.608,4.945,5.170
7.612,4.955,5.185
7.616,4.970,5.190
7.620,4.965,5.185
7.624,4.965,5.180
7.628,4.980,5.215
7.632,4.985,5.220
7.636,4.980,5.205
7.640,4.980,5.205
7.644,4.970,5.220
7.648,4.990,5.245
7.652,4.985,5.240
7.656,4.980,5.225
7.660,4.975,5.255
7.664,5.015,5.265
7.668,5.005,5.265
7.672,5.000,5.255
7.676,4.995,5.275
7.680,5.010,5.295
7.684,5.025,5.300
7.688,5.015,5.285
7.692,5.015,5.305
7.696,5.035,5.315
7.700,5.045,5.320
7.704,5.040,5.325
7.708,5.030,5.325
7.712,5.025,5.345
7.716,5.045,5.360
7.720,5.050,5.360
7.724,5.040,5.370
7.728,5.055,5.390
7.732,5.065,5.400
7.736,5.075,5.400
7.740,5.050,5.400
7.744,5.055,5.415
7.748,5.070,5.430
7.752,5.070,5.430
7.756,5.060,5.425
7.760,5.055,5.435
7.764,5.070,5.455
7.768,5.080,5.455
7.772,5.060,5.440
7.776,5.040,5.450
7.780,5.045,5.460
7.784,5.050,5.480
7.788,5.035,5.455
7.792,5.010,5.450
7.796,5.010,5.460
7.800,5.015,5.460
7.804,4.990,5.435
7.808,4.965,5.425
7.812,4.970,5.430
7.816,4.970,5.415
7.820,4.955,5.405
7.824,4.930,5.385
7.828,4.925,5.375
7.832,4.925,5.375
7.836,4.915,5.355
7.840,4.895,5.335
7.844,4.885,5.340
7.848,4.880,5.335
7.852,4.875,5.305
7.856,4.875,5.275
7.860,4.860,5.285
7.864,4.865,5.295
7.868,4.870,5.275
7.872,4.865,5.255
7.876,4.850,5.255
7.880,4.850,5.260
7.884,4.860,5.240
7.888,4.850,5.225
7.892,4.830,5.230
7.896,4.835,5.235
7.900,4.840,5.235
7.904,4.835,5.220
7.908,4.820,5.210
7.912,4.830,5.220
7.916,4.835,5.220
7.920,4.820,5.205
7.924,4.810,5.205
7.928,4.815,5.215
7.932,4.820,5.210
7.936,4.810,5.195
7.940,4.810,5.185
7.944,4.800,5.195
7.948,4.815,5.210
7.952,4.805,5.195
7.956,4.800,5.180
7.960,4.785,5.195
7.964,4.795,5.210
7.968,4.805,5.190
7.972,4.790,5.175
7.976,4.785,5.180
7.980,4.790,5.190
7.984,4.800,5.185
7.988,4.780,5.165
7.992,4.770,5.170
7.996,4.785,5.180
8.000,4.790,5.180
8.004,4.775,5.170
8.008,4.760,5.160
8.012,4.770,5.170
8.016,4.780,5.180
8.020,4.770,5.155
8.024,4.765,5.150
8.028,4.770,5.155
8.032,4.775,5.160
8.036,4.770,5.155
8.040,4.755,5.150
8.044,4.755,5.155
8.048,4.775,5.155
8.052,4.775,5.160
8.056,4.745,5.140
8.060,4.760,5.150
8.064,4.775,5.160
8.068,4.770,5.150
8.072,4.760,5.135
8.076,4.765,5.140
8.080,4.770,5.155
8.084,4.770,5.155
8.088,4.765,5.140
8.092,4.755,5.135
8.096,4.765,5.155
8.100,4.775,5.155
8.104,4.760,5.135
8.108,4.760,5.130
8.112,4.770,5.155
8.116,4.785,5.155
8.120,4.780,5.145
8.124,4.765,5.130
8.128,4.780,5.145
8.132,4.785,5.145
8.136,4.770,5.140
8.140,4.775,5.135
8.144,4.780,5.155
8.148,4.805,5.160
8.152,4.805,5.150
8.156,4.815,5.155
8.160,4.850,5.160
8.164,4.940,5.185
8.168,5.315,5.280
8.172,5.855,5.585
8.176,5.620,5.975
8.180,5.125,5.775
8.184,5.030,5.465
8.188,5.045,5.390
8.192,5.005,5.370
8.196,4.990,5.360
8.200,4.980,5.350
8.204,4.945,5.305
8.208,4.910,5.295
8.212,4.895,5.265
8.216,4.860,5.240
8.220,4.815,5.210
8.224,4.785,5.200
8.228,4.775,5.215
8.232,4.735,5.195
8.236,4.695,5.175
8.240,4.650,5.155
8.244,4.605,5.135
8.248,4.550,5.130
8.252,4.445,5.105
8.256,4.370,5.080
8.260,4.330,5.070
8.264,4.300,5.060
8.268,4.255,5.020
8.272,4.245,4.965
8.276,4.240,4.905
8.280,4.270,4.855
8.284,4.275,4.820
8.288,4.265,4.760
8.292,4.270,4.715
8.296,4.300,4.685
8.300,4.315,4.670
8.304,4.360,4.555
8.308,4.415,4.490
8.312,4.505,4.455
8.316,4.580,4.470
8.320,4.620,4.530
8.324,4.660,4.590
8.328,4.725,4.680
8.332,4.755,4.770
8.336,4.760,4.840
8.340,4.765,4.895
8.344,4.785,4.950
8.348,4.805,4.990
8.352,4.800,5.010
8.356,4.805,5.015
8.360,4.815,5.035
8.364,4.820,5.055
8.368,4.830,5.060
8.372,4.825,5.045
8.376,4.830,5.060
8.380,4.850,5.090
8.384,4.870,5.100
8.388,4.890,5.110
8.392,4.905,5.145
8.396,4.935,5.180
8.400,4.945,5.195
8.404,4.960,5.195
8.408,4.960,5.200
8.412,4.985,5.225
8.416,4.990,5.235
8.420,4.995,5.225
8.424,4.995,5.215
8.428,5.035,5.240
8.432,5.040,5.245
8.436,5.040,5.250
8.440,5.030,5.260
8.444,5.025,5.275
8.448,5.010,5.275
8.452,5.010,5.265
8.456,4.985,5.260
8.460,4.990,5.275
8.464,5.015,5.285
8.468,4.995,5.290
8.472,4.995,5.280
8.476,4.985,5.275
8.480,5.005,5.295
8.484,5.005,5.295
8.488,5.010,5.290
8.492,5.005,5.300
8.496,5.025,5.315
8.500,5.035,5.325
8.504,5.035,5.335
8.508,5.030,5.330
8.512,5.040,5.350
8.516,5.055,5.370
8.520,5.050,5.360
8.524,5.040,5.370
8.528,5.055,5.390
8.532,5.065,5.400
8.536,5.060,5.405
8.540,5.060,5.400
8.544,5.075,5.430
8.548,5.085,5.445
8.552,5.085,5.445
8.556,5.075,5.455
8.560,5.080,5.470
8.564,5.100,5.475
8.568,5.105,5.485
8.572,5.090,5.475
8.576,5.075,5.490
8.580,5.090,5.505
8.584,5.090,5.500
8.588,5.070,5.490
8.592,5.060,5.495
8.596,5.070,5.505
8.600,5.065,5.500
8.604,5.040,5.485
8.608,5.025,5.475
8.612,5.010,5.485
8.616,5.005,5.480
8.620,5.000,5.460
8.624,4.980,5.440
8.628,4.970,5.445
8.632,4.965,5.440
8.636,4.945,5.420
8.640,4.915,5.395
8.644,4.920,5.400
8.648,4.935,5.390
8.652,4.920,5.375
8.656,4.905,5.340
8.660,4.890,5.340
8.664,4.895,5.345
8.668,4.895,5.325
8.672,4.880,5.310
8.676,4.870,5.295
8.680,4.875,5.310
8.684,4.885,5.285
8.688,4.860,5.275
8.692,4.840,5.275
8.696,4.845,5.275
8.700,4.860,5.275
8.704,4.850,5.245
8.708,4.835,5.235
8.712,4.850,5.250
8.716,4.855,5.250
8.720,4.840,5.230
8.724,4.830,5.225
8.728,4.835,5.240
8.732,4.830,5.245
8.736,4.830,5.240
8.740,4.820,5.225
8.744,4.830,5.230
8.748,4.840,5.240
8.752,4.825,5.230
8.756,4.815,5.210
8.760,4.810,5.215
8.764,4.820,5.230
8.768,4.815,5.220
8.772,4.805,5.205
8.776,4.800,5.215
8.780,4.805,5.225
8.784,4.800,5.235
8.788,4.810,5.205
8.792,4.795,5.205
8.796,4.805,5.220
8.800,4.805,5.225
8.804,4.800,5.205
8.808,4.790,5.205
8.812,4.790,5.205
8.816,4.795,5.205
8.820,4.780,5.200
8.824,4.780,5.195
8.828,4.765,5.210
8.832,4.770,5.200
8.836,4.780,5.185
8.840,4.760,5.175
8.844,4.775,5.200
8.848,4.785,5.200
8.852,4.775,5.190
8.856,4.775,5.165
8.860,4.770,5.175
8.864,4.780,5.190
8.868,4.785,5.185
8.872,4.775,5.170
8.876,4.765,5.185
8.880,4.775,5.185
8.884,4.775,5.185
8.888,4.780,5.175
8.892,4.770,5.190
8.896,4.780,5.180
8.900,4.790,5.185
8.904,4.775,5.175
8.908,4.765,5.175
8.912,4.775,5.190
8.916,4.790,5.185
8.920,4.780,5.180
8.924,4.780,5.170
8.928,4.780,5.190
8.932,4.785,5.190
8.936,4.785,5.185
8.940,4.785,5.175
8.944,4.795,5.190
8.948,4.815,5.190
8.952,4.835,5.190
8.956,4.855,5.200
8.960,4.955,5.220
8.964,5.295,5.270
8.968,5.855,5.570
8.972,5.635,6.005
8.976,5.110,5.770
8.980,5.005,5.460
8.984,5.045,5.395
8.988,4.995,5.375
8.992,4.945,5.340
8.996,4.945,5.345
9.000,4.950,5.335
9.004,4.875,5.260
9.008,4.820,5.215
9.012,4.805,5.195
9.016,4.770,5.200
9.020,4.720,5.160
9.024,4.660,5.145
9.028,4.615,5.135
9.032,4.580,5.115
9.036,4.505,5.085
9.040,4.390,5.050
9.044,4.310,5.035
9.048,4.280,5.020
9.052,4.245,5.000
9.056,4.190,4.960
9.060,4.190,4.915
9.064,4.210,4.865
9.068,4.210,4.795
9.072,4.220,4.740
9.076,4.250,4.720
9.080,4.270,4.680
9.084,4.295,4.620
9.088,4.325,4.565
9.092,4.375,4.520
9.096,4.475,4.460
9.100,4.515,4.435
9.104,4.610,4.440
9.108,4.655,4.510
9.112,4.730,4.595
9.116,4.780,4.675
9.120,4.805,4.770
9.124,4.825,4.860
9.128,4.850,4.935
9.132,4.870,4.975
9.136,4.875,4.995
9.140,4.875,5.010
9.144,4.900,5.040
9.148,4.925,5.055
9.152,4.910,5.040
9.156,4.900,5.050
9.160,4.915,5.065
9.164,4.935,5.095
9.168,4.940,5.110
9.172,4.945,5.120
9.176,4.955,5.165
9.180,4.975,5.195
9.184,4.985,5.230
9.188,4.990,5.230
9.192,5.010,5.230
9.196,5.015,5.245
9.200,5.020,5.250
9.204,5.010,5.245
9.208,5.010,5.245
9.212,5.030,5.275
9.216,5.045,5.270
9.220,5.040,5.275
9.224,5.040,5.270
9.228,5.060,5.295
9.232,5.065,5.305
9.236,5.055,5.305
9.240,5.050,5.300
9.244,5.055,5.330
9.248,5.070,5.335
9.252,5.060,5.340
9.256,5.050,5.350
9.260,5.075,5.370
9.264,5.100,5.375
9.268,5.080,5.390
9.272,5.065,5.380
9.276,5.070,5.395
9.280,5.095,5.410
9.284,5.110,5.405
9.288,5.105,5.410
9.292,5.125,5.420
9.296,5.145,5.440
9.300,5.150,5.450
9.304,5.175,5.445
9.308,5.165,5.455
9.312,5.175,5.475
9.316,5.175,5.480
9.320,5.185,5.495
9.324,5.190,5.495
9.328,5.235,5.525
9.332,5.240,5.535
9.336,5.250,5.535
9.340,5.235,5.555
9.344,5.230,5.555
9.348,5.225,5.560
9.352,5.210,5.560
9.356,5.195,5.550
9.360,5.190,5.565
9.364,5.200,5.590
9.368,5.175,5.585
9.372,5.145,5.565
9.376,5.120,5.550
9.380,5.120,5.555
9.384,5.105,5.540
9.388,5.075,5.520
9.392,5.055,5.505
9.396,5.060,5.510
9.400,5.070,5.505
9.404,5.025,5.475
9.408,4.985,5.465
9.412,4.990,5.460
9.416,4.990,5.445
9.420,4.975,5.420
9.424,4.965,5.400
9.428,4.955,5.380
9.432,4.970,5.375
9.436,4.955,5.360
9.440,4.925,5.335
9.444,4.915,5.340
9.448,4.925,5.330
9.452,4.920,5.310
9.456,4.900,5.285
9.460,4.900,5.290
9.464,4.905,5.295
9.468,4.905,5.275
9.472,4.890,5.265
9.476,4.875,5.260
9.480,4.890,5.260
9.484,4.880,5.265
9.488,4.870,5.245
9.492,4.870,5.240
9.496,4.880,5.245
9.500,4.885,5.250
9.504,4.880,5.220
9.508,4.865,5.220
9.512,4.870,5.235
9.516,4.870,5.220
9.520,4.860,5.215
9.524,4.855,5.210
9.528,4.870,5.225
9.532,4.870,5.235
9.536,4.870,5.225
9.540,4.860,5.210
9.544,4.860,5.215
9.548,4.865,5.225
9.552,4.860,5.200
9.556,4.840,5.195
9.560,4.840,5.215
9.564,4.845,5.230
9.568,4.855,5.220
9.572,4.850,5.200
9.576,4.835,5.195
9.580,4.835,5.205
9.584,4.835,5.215
9.588,4.835,5.190
9.592,4.825,5.190
9.596,4.835,5.195
9.600,4.840,5.195
9.604,4.825,5.185
9.608,4.810,5.185
9.612,4.825,5.190
9.616,4.830,5.185
9.620,4.815,5.185
9.624,4.815,5.175
9.628,4.825,5.200
9.632,4.835,5.180
9.636,4.825,5.175
9.640,4.820,5.160
9.644,4.820,5.185
9.648,4.830,5.190
9.652,4.815,5.170
9.656,4.805,5.165
9.660,4.805,5.180
9.664,4.815,5.185
9.668,4.820,5.170
9.672,4.815,5.160
9.676,4.825,5.175
9.680,4.825,5.185
9.684,4.825,5.175
9.688,4.825,5.160
9.692,4.810,5.165
9.696,4.820,5.170
9.700,4.825,5.175
9.704,4.835,5.165
9.708,4.825,5.165
9.712,4.830,5.175
9.716,4.850,5.190
9.720,4.860,5.170
9.724,4.905,5.190
9.728,5.055,5.240
9.732,5.555,5.385
9.736,5.925,5.820
9.740,5.440,5.965
9.744,5.075,5.610
9.748,5.075,5.435
9.752,5.070,5.400
9.756,5.010,5.365
9.760,4.985,5.350
9.764,4.980,5.330
9.768,4.945,5.310
9.772,4.895,5.245
9.776,4.840,5.215
9.780,4.820,5.190
9.784,4.795,5.175
9.788,4.735,5.145
9.792,4.680,5.120
9.796,4.645,5.115
9.800,4.630,5.100
9.804,4.535,5.045
9.808,4.400,5.015
9.812,4.325,5.005
9.816,4.285,5.000
9.820,4.235,4.955
9.824,4.205,4.910
9.828,4.195,4.855
9.832,4.215,4.790
9.836,4.220,4.730
9.840,4.215,4.690
9.844,4.255,4.650
9.848,4.275,4.610
9.852,4.310,4.565
9.856,4.355,4.500
9.860,4.425,4.445
9.864,4.520,4.405
9.868,4.590,4.430
9.872,4.635,4.470
9.876,4.690,4.555
9.880,4.760,4.650
9.884,4.795,4.745
9.888,4.815,4.820
9.892,4.835,4.895
9.896,4.855,4.950
9.900,4.865,4.965
9.904,4.885,5.000
9.908,4.895,5.010
9.912,4.910,5.045
9.916,4.915,5.050
9.920,4.910,5.045
9.924,4.905,5.065
9.928,4.915,5.090
9.932,4.930,5.125
9.936,4.945,5.130
9.940,4.955,5.150
9.944,4.970,5.190
9.948,4.995,5.220
9.952,4.995,5.220
9.956,4.995,5.220
9.960,5.015,5.230
9.964,5.025,5.250
9.968,5.020,5.235
9.972,5.015,5.230
9.976,5.015,5.240
9.980,5.025,5.255
9.984,5.040,5.265
9.988,5.035,5.245
9.992,5.025,5.250
9.996,5.040,5.270
10.000,5.045,5.275
10.004,5.055,5.275
10.008,5.050,5.280
10.012,5.055,5.290
10.016,5.065,5.305
10.020,5.065,5.290
10.024,5.055,5.295
10.028,5.075,5.320
10.032,5.085,5.330
10.036,5.090,5.330
10.040,5.090,5.325
10.044,5.110,5.335
10.048,5.110,5.350
10.052,5.115,5.350
10.056,5.105,5.335
10.060,5.115,5.370
10.064,5.130,5.375
10.068,5.135,5.390
10.072,5.130,5.385
10.076,5.130,5.400
10.080,5.140,5.415
10.084,5.150,5.430
10.088,5.145,5.425
10.092,5.135,5.425
10.096,5.155,5.450
10.100,5.170,5.460
10.104,5.160,5.455
10.108,5.150,5.460
10.112,5.175,5.475
10.116,5.175,5.490
10.120,5.160,5.495
10.124,5.155,5.490
10.128,5.170,5.500
10.132,5.165,5.510
10.136,5.155,5.505
10.140,5.145,5.500
10.144,5.140,5.500
10.148,5.140,5.510
10.152,5.125,5.495
10.156,5.100,5.485
10.160,5.090,5.485
10.164,5.085,5.480
10.168,5.070,5.475
10.172,5.050,5.450
10.176,5.025,5.455
10.180,5.025,5.460
10.184,5.010,5.445
10.188,4.990,5.420
10.192,4.975,5.420
10.196,4.975,5.410
10.200,4.980,5.410
10.204,4.960,5.380
10.208,4.950,5.360
10.212,4.955,5.355
10.216,4.960,5.340
10.220,4.970,5.315
10.224,4.950,5.305
10.228,4.955,5.305
10.232,4.970,5.300
10.236,4.965,5.275
10.240,4.950,5.255
10.244,4.950,5.270
10.248,4.965,5.265
10.252,4.970,5.255
10.256,4.975,5.230
10.260,4.965,5.230
10.264,4.985,5.235
10.268,4.985,5.235
10.272,4.965,5.235
10.276,4.945,5.240
10.280,4.940,5.245
10.284,4.930,5.225
10.288,4.915,5.210
10.292,4.895,5.215
10.296,4.900,5.220
10.300,4.890,5.215
10.304,4.880,5.185
10.308,4.870,5.175
10.312,4.875,5.195
10.316,4.885,5.200
10.320,4.865,5.190
10.324,4.860,5.175
10.328,4.870,5.195
10.332,4.875,5.190
10.336,4.870,5.180
10.340,4.855,5.165
10.344,4.845,5.175
10.348,4.865,5.180
10.352,4.850,5.175
10.356,4.870,5.165
10.360,4.845,5.155
10.364,4.855,5.180
10.368,4.855,5.170
10.372,4.850,5.160
10.376,4.840,5.160
10.380,4.845,5.170
10.384,4.845,5.160
10.388,4.840,5.155
10.392,4.820,5.165
10.396,4.845,5.170
10.400,4.850,5.175
10.404,4.835,5.160
10.408,4.820,5.150
10.412,4.840,5.165
10.416,4.845,5.165
10.420,4.840,5.155
10.424,4.835,5.150
10.428,4.835,5.155
10.432,4.845,5.160
10.436,4.840,5.150
10.440,4.825,5.140
10.444,4.825,5.150
10.448,4.840,5.155
10.452,4.835,5.150
10.456,4.830,5.140
10.460,4.825,5.150
10.464,4.845,5.155
10.468,4.840,5.145
10.472,4.835,5.135
10.476,4.825,5.155
10.480,4.850,5.155
10.484,4.860,5.160
10.488,4.845,5.145
10.492,4.840,5.150
10.496,4.855,5.165
10.500,4.860,5.175
10.504,4.850,5.165
10.508,4.850,5.155
10.512,4.865,5.175
10.516,4.885,5.175
10.520,4.875,5.170
10.524,4.885,5.185
10.528,4.925,5.215
10.532,5.045,5.255
10.536,5.420,5.300
10.540,5.990,5.530
10.544,5.910,6.000
10.548,5.500,5.995
10.552,5.445,5.665
10.556,5.545,5.570
10.560,5.615,5.600
10.564,5.740,5.575
10.568,5.915,5.600
10.572,6.090,5.645
10.576,6.225,5.705
10.580,6.265,5.735
10.584,6.140,5.680
10.588,5.875,5.470
10.592,5.595,5.210
10.596,5.405,5.005
10.600,5.350,4.950
10.604,5.030,4.815
10.608,4.870,4.820
10.612,4.815,4.870
10.616,4.790,4.925
10.620,4.750,5.000
10.624,4.730,5.060
10.628,4.755,5.115
10.632,4.760,5.125
10.636,4.765,5.120
10.640,4.755,5.120
10.644,4.760,5.125
10.648,4.780,5.120
10.652,4.770,5.110
10.656,4.755,5.105
10.660,4.755,5.115
10.664,4.765,5.110
10.668,4.755,5.100
10.672,4.745,5.095
10.676,4.740,5.095
10.680,4.750,5.105
10.684,4.750,5.105
10.688,4.745,5.095
10.692,4.735,5.090
10.696,4.745,5.095
10.700,4.740,5.095
10.704,4.725,5.095
10.708,4.715,5.085
10.712,4.720,5.085
10.716,4.715,5.085
10.720,4.710,5.070
10.724,4.700,5.065
10.728,4.715,5.075
10.732,4.710,5.080
10.736,4.695,5.065
10.740,4.680,5.050
10.744,4.685,5.055
10.748,4.690,5.070
10.752,4.690,5.050
10.756,4.675,5.055
10.760,4.670,5.050
10.764,4.675,5.055
10.768,4.675,5.055
10.772,4.660,5.040
10.776,4.660,5.045
10.780,4.655,5.045
10.784,4.655,5.045
10.788,4.650,5.025
10.792,4.630,5.025
10.796,4.645,5.035
10.800,4.650,5.040
10.804,4.640,5.005
10.808,4.620,5.000
10.812,4.615,5.025
10.816,4.635,5.025
10.820,4.625,5.025
10.824,4.615,5.010
10.828,4.620,5.025
10.832,4.630,5.015
10.836,4.635,5.000
10.840,4.620,4.995
10.844,4.625,5.010
10.848,4.635,5.015
10.852,4.630,5.020
10.856,4.630,5.000
10.860,4.630,5.020
10.864,4.650,5.030
10.868,4.650,5.030
10.872,4.655,5.040
10.876,4.645,5.040
10.880,4.670,5.060
10.884,4.680,5.065
10.888,4.690,5.060
10.892,4.685,5.075
10.896,4.700,5.100
10.900,4.710,5.105
10.904,4.730,5.115
10.908,4.725,5.120
10.912,4.755,5.140
10.916,4.775,5.150
10.920,4.780,5.175
10.924,4.775,5.165
10.928,4.790,5.185
10.932,4.810,5.205
10.936,4.815,5.205
10.940,4.810,5.205
10.944,4.825,5.220
10.948,4.845,5.225
10.952,4.845,5.235
10.956,4.825,5.220
10.960,4.835,5.225
10.964,4.855,5.240
10.968,4.850,5.230
10.972,4.845,5.215
10.976,4.840,5.215
10.980,4.865,5.225
10.984,4.860,5.225
10.988,4.855,5.220
10.992,4.855,5.215
10.996,4.850,5.220
11.000,4.855,5.225
11.004,4.845,5.195
11.008,4.845,5.200
11.012,4.855,5.205
11.016,4.855,5.220
11.020,4.855,5.200
11.024,4.845,5.190
11.028,4.855,5.205
11.032,4.850,5.205
11.036,4.840,5.210
11.040,4.840,5.185
11.044,4.835,5.195
11.048,4.855,5.210
11.052,4.840,5.195
11.056,4.835,5.195
11.060,4.830,5.195
11.064,4.845,5.205
11.068,4.840,5.195
11.072,4.825,5.180
11.076,4.830,5.190
11.080,4.835,5.200
11.084,4.835,5.195
11.088,4.830,5.190
11.092,4.835,5.190
11.096,4.840,5.205
11.100,4.845,5.200
11.104,4.840,5.200
11.108,4.825,5.195
11.112,4.825,5.220
11.116,4.840,5.225
11.120,4.835,5.215
11.124,4.825,5.205
11.128,4.835,5.220
11.132,4.835,5.230
11.136,4.810,5.230
11.140,4.820,5.225
11.144,4.820,5.235
11.148,4.830,5.225
11.152,4.835,5.225
11.156,4.810,5.205
11.160,4.820,5.200
11.164,4.845,5.210
11.168,4.855,5.205
11.172,4.850,5.195
11.176,4.850,5.200
11.180,4.875,5.200
11.184,4.880,5.195
11.188,4.870,5.180
11.192,4.870,5.195
11.196,4.900,5.200
11.200,4.915,5.195
11.204,4.920,5.175
11.208,4.915,5.175
11.212,4.915,5.195
11.216,4.925,5.200
11.220,4.905,5.175
11.224,4.880,5.170
11.228,4.870,5.180
11.232,4.880,5.185
11.236,4.870,5.165
11.240,4.855,5.155
11.244,4.845,5.160
11.248,4.860,5.165
11.252,4.855,5.155
11.256,4.835,5.145
11.260,4.850,5.150
11.264,4.870,5.155
11.268,4.845,5.150
11.272,4.830,5.140
11.276,4.840,5.145
11.280,4.845,5.145
11.284,4.845,5.165
11.288,4.840,5.145
11.292,4.835,5.145
11.296,4.850,5.150
11.300,4.855,5.155
11.304,4.845,5.140
11.308,4.845,5.140
11.312,4.850,5.150
11.316,4.865,5.150
11.320,4.865,5.145
11.324,4.845,5.145
11.328,4.860,5.155
11.332,4.870,5.165
11.336,4.865,5.160
11.340,4.870,5.140
11.344,4.875,5.160
11.348,4.885,5.180
11.352,4.890,5.165
11.356,4.885,5.160
11.360,4.895,5.160
11.364,4.920,5.175
11.368,4.945,5.185
11.372,4.975,5.195
11.376,5.130,5.250
11.380,5.605,5.350
11.384,6.085,5.675
11.388,5.785,6.065
11.392,5.390,5.950
11.396,5.410,5.645
11.400,5.450,5.585
11.404,5.545,5.560
11.408,5.615,5.540
11.412,5.765,5.550
11.416,5.960,5.580
11.420,6.110,5.620
11.424,6.210,5.685
11.428,6.255,5.720
11.432,6.135,5.665
11.436,5.900,5.490
11.440,5.655,5.250
11.444,5.455,5.045
11.448,5.295,4.900
11.452,5.125,4.820
11.456,4.965,4.800
11.460,4.865,4.845
11.464,4.835,4.900
11.468,4.800,4.955
11.472,4.770,5.025
11.476,4.775,5.090
11.480,4.805,5.140
11.484,4.795,5.140
11.488,4.780,5.120
11.492,4.770,5.135
11.496,4.790,5.145
11.500,4.795,5.135
11.504,4.785,5.100
11.508,4.770,5.100
11.512,4.785,5.115
11.516,4.785,5.110
11.520,4.775,5.105
11.524,4.770,5.095
11.528,4.785,5.115
11.532,4.780,5.105
11.536,4.770,5.105
11.540,4.765,5.080
11.544,4.760,5.110
11.548,4.770,5.100
11.552,4.760,5.095
11.556,4.755,5.085
11.560,4.745,5.100
11.564,4.745,5.100
11.568,4.740,5.100
11.572,4.730,5.085
11.576,4.730,5.085
11.580,4.740,5.080
11.584,4.735,5.085
11.588,4.725,5.075
11.592,4.710,5.075
11.596,4.730,5.080
11.600,4.735,5.080
11.604,4.715,5.070
11.608,4.710,5.065
11.612,4.710,5.075
11.616,4.715,5.065
11.620,4.715,5.060
11.624,4.700,5.060
11.628,4.715,5.065
11.632,4.705,5.070
11.636,4.690,5.060
11.640,4.685,5.060
11.644,4.690,5.050
11.648,4.695,5.055
11.652,4.695,5.055
11.656,4.680,5.035
11.660,4.680,5.045
11.664,4.705,5.060
11.668,4.690,5.050
11.672,4.680,5.045
11.676,4.685,5.050
11.680,4.700,5.055
11.684,4.695,5.065
11.688,4.690,5.045
11.692,4.700,5.060
11.696,4.715,5.070
11.700,4.720,5.075
11.704,4.720,5.055
11.708,4.720,5.065
11.712,4.735,5.090
11.716,4.735,5.090
11.720,4.740,5.090
11.724,4.735,5.100
11.728,4.760,5.125
11.732,4.770,5.130
11.736,4.775,5.125
11.740,4.775,5.130
11.744,4.785,5.155
11.748,4.805,5.175
11.752,4.820,5.170
11.756,4.820,5.170
11.760,4.825,5.200
11.764,4.840,5.215
11.768,4.860,5.220
11.772,4.845,5.225
11.776,4.860,5.230
11.780,4.880,5.255
11.784,4.890,5.250
11.788,4.880,5.245
11.792,4.880,5.255
11.796,4.890,5.265
11.800,4.890,5.275
11.804,4.885,5.250
11.808,4.895,5.240
11.812,4.910,5.265
11.816,4.910,5.255
11.820,4.900,5.250
11.824,4.895,5.245
11.828,4.905,5.255
11.832,4.905,5.245
11.836,4.910,5.240
11.840,4.880,5.220
11.844,4.890,5.235
11.848,4.905,5.235
11.852,4.900,5.230
11.856,4.895,5.220
11.860,4.885,5.225
11.864,4.895,5.230
11.868,4.895,5.220
11.872,4.880,5.205
11.876,4.870,5.225
11.880,4.880,5.220
11.884,4.885,5.220
11.888,4.870,5.210
11.892,4.865,5.205
11.896,4.860,5.215
11.900,4.865,5.215
11.904,4.870,5.210
11.908,4.855,5.205
11.912,4.855,5.215
11.916,4.865,5.225
11.920,4.850,5.210
11.924,4.855,5.210
11.928,4.860,5.230
11.932,4.870,5.220
11.936,4.870,5.225
11.940,4.860,5.215
11.944,4.850,5.230
11.948,4.870,5.225
11.952,4.850,5.225
11.956,4.845,5.215
11.960,4.870,5.230
11.964,4.885,5.230
11.968,4.875,5.225
11.972,4.875,5.210
11.976,4.865,5.220
11.980,4.885,5.225
11.984,4.885,5.225
11.988,4.875,5.215
11.992,4.865,5.215
11.996,4.895,5.220
12.000,4.910,5.225
12.004,4.890,5.205
12.008,4.880,5.205
12.012,4.885,5.220
12.016,4.885,5.210
12.020,4.885,5.200
12.024,4.870,5.195
12.028,4.885,5.215
12.032,4.895,5.210
12.036,4.875,5.215
12.040,4.870,5.195
12.044,4.870,5.215
12.048,4.885,5.230
12.052,4.880,5.215
12.056,4.875,5.205
12.060,4.860,5.225
12.064,4.870,5.235
12.068,4.860,5.230
12.072,4.850,5.210
12.076,4.845,5.220
12.080,4.870,5.230
12.084,4.875,5.215
12.088,4.880,5.195
12.092,4.875,5.200
12.096,4.895,5.200
12.100,4.900,5.205
12.104,4.915,5.190
12.108,4.905,5.180
12.112,4.905,5.195
12.116,4.920,5.200
12.120,4.930,5.185
12.124,4.930,5.190
12.128,4.940,5.195
12.132,4.960,5.205
12.136,4.965,5.190
12.140,4.945,5.190
12.144,4.955,5.210
12.148,4.955,5.225
12.152,4.945,5.210
12.156,4.920,5.180
12.160,4.920,5.190
12.164,4.930,5.195
12.168,4.920,5.190
12.172,4.910,5.180
12.176,4.900,5.170
12.180,4.915,5.180
12.184,4.920,5.175
12.188,4.915,5.170
12.192,4.915,5.180
12.196,4.975,5.195
12.200,5.000,5.200
12.204,5.390,5.240
12.208,5.925,5.455
12.212,5.795,5.915
12.216,5.300,5.875
12.220,5.120,5.510
12.224,5.145,5.405
12.228,5.135,5.400
12.232,5.110,5.360
12.236,5.095,5.335
12.240,5.070,5.325
12.244,5.065,5.315
12.248,5.070,5.305
12.252,5.035,5.270
12.256,5.000,5.235
12.260,4.975,5.230
12.264,4.965,5.245
12.268,4.940,5.230
12.272,4.895,5.220
12.276,4.840,5.215
12.280,4.805,5.215
12.284,4.770,5.185
12.288,4.690,5.155
12.292,4.585,5.160
12.296,4.520,5.165
12.300,4.505,5.160
12.304,4.415,5.130
12.308,4.400,5.105
12.312,4.425,5.065
12.316,4.455,5.015
12.320,4.485,4.955
12.324,4.500,4.935
12.328,4.540,4.965
12.332,4.615,5.000
12.336,4.660,5.025
12.340,4.725,5.050
12.344,4.800,5.090
12.348,4.860,5.075
12.352,4.885,4.980
12.356,4.895,4.875
12.360,4.870,4.810
12.364,4.865,4.775
12.368,4.850,4.755
12.372,4.840,4.775
12.376,4.835,4.875
12.380,4.870,4.970
12.384,4.885,5.055
12.388,4.885,5.090
12.392,4.880,5.150
12.396,4.905,5.155
12.400,4.920,5.160
12.404,4.935,5.150
12.408,4.935,5.145
12.412,4.965,5.160
12.416,4.970,5.170
12.420,4.980,5.155
12.424,4.975,5.150
12.428,4.980,5.165
12.432,5.005,5.175
12.436,5.005,5.165
12.440,5.005,5.160
12.444,5.010,5.160
12.448,5.015,5.180
12.452,5.015,5.165
12.456,5.015,5.160
12.460,5.025,5.180
12.464,5.045,5.185
12.468,5.055,5.180
12.472,5.050,5.175
12.476,5.040,5.175
12.480,5.055,5.185
12.484,5.055,5.185
12.488,5.060,5.180
12.492,5.050,5.195
12.496,5.080,5.205
12.500,5.095,5.210
12.504,5.085,5.195
12.508,5.090,5.225
12.512,5.110,5.235
12.516,5.115,5.230
12.520,5.110,5.225
12.524,5.100,5.230
12.528,5.100,5.250
12.532,5.120,5.250
12.536,5.130,5.245
12.540,5.130,5.250
12.544,5.135,5.270
12.548,5.150,5.265
12.552,5.145,5.275
12.556,5.145,5.280
12.560,5.140,5.290
12.564,5.155,5.300
12.568,5.145,5.305
12.572,5.145,5.305
12.576,5.145,5.315
12.580,5.165,5.315
12.584,5.155,5.330
12.588,5.140,5.325
12.592,5.135,5.315
12.596,5.160,5.345
12.600,5.165,5.345
12.604,5.135,5.340
12.608,5.115,5.330
12.612,5.115,5.350
12.616,5.120,5.345
12.620,5.105,5.335
12.624,5.085,5.340
12.628,5.090,5.350
12.632,5.095,5.360
12.636,5.075,5.350
12.640,5.045,5.330
12.644,5.045,5.345
12.648,5.045,5.345
12.652,5.025,5.330
12.656,5.005,5.325
12.660,4.995,5.325
12.664,5.000,5.325
12.668,4.995,5.320
12.672,4.970,5.310
12.676,4.950,5.295
12.680,4.960,5.310
12.684,4.960,5.300
12.688,4.955,5.280
12.692,4.945,5.285
12.696,4.965,5.285
12.700,4.960,5.285
12.704,4.935,5.265
12.708,4.920,5.255
12.712,4.920,5.260
12.716,4.935,5.260
12.720,4.925,5.250
12.724,4.920,5.240
12.728,4.920,5.245
12.732,4.920,5.245
12.736,4.920,5.220
12.740,4.920,5.210
12.744,4.925,5.230
12.748,4.940,5.230
12.752,4.935,5.235
12.756,4.930,5.210
12.760,4.920,5.215
12.764,4.930,5.235
12.768,4.930,5.220
12.772,4.915,5.205
12.776,4.920,5.215
12.780,4.930,5.230
12.784,4.935,5.225
12.788,4.925,5.210
12.792,4.910,5.215
12.796,4.915,5.225
12.800,4.920,5.235
12.804,4.910,5.200
12.808,4.915,5.205
12.812,4.930,5.220
12.816,4.945,5.235
12.820,4.920,5.215
12.824,4.905,5.215
12.828,4.910,5.225
12.832,4.920,5.225
12.836,4.905,5.220
12.840,4.910,5.210
12.844,4.910,5.215
12.848,4.930,5.230
12.852,4.930,5.215
12.856,4.905,5.205
12.860,4.905,5.230
12.864,4.925,5.230
12.868,4.915,5.230
12.872,4.905,5.200
12.876,4.895,5.215
12.880,4.915,5.230
12.884,4.905,5.215
12.888,4.890,5.215
12.892,4.875,5.220
12.896,4.900,5.225
12.900,4.905,5.225
12.904,4.890,5.205
12.908,4.880,5.200
12.912,4.895,5.220
12.916,4.900,5.205
12.920,4.880,5.190
12.924,4.875,5.190
12.928,4.895,5.205
12.932,4.905,5.205
12.936,4.900,5.190
12.940,4.885,5.190
12.944,4.885,5.190
12.948,4.895,5.205
12.952,4.900,5.190
12.956,4.880,5.185
12.960,4.880,5.195
12.964,4.900,5.195
12.968,4.885,5.195
12.972,4.875,5.180
12.976,4.880,5.190
12.980,4.895,5.195
12.984,4.905,5.200
12.988,4.890,5.180
12.992,4.890,5.195
12.996,4.895,5.210
13.000,4.900,5.220
13.004,4.895,5.200
13.008,4.885,5.205
13.012,4.885,5.225
13.016,4.890,5.240
13.020,4.885,5.230
13.024,4.905,5.225
13.028,4.950,5.255
13.032,5.045,5.270
13.036,5.375,5.275
13.040,5.930,5.505
13.044,5.775,5.990
13.048,5.290,5.900
13.052,5.160,5.550
13.056,5.180,5.455
13.060,5.150,5.440
13.064,5.115,5.405
13.068,5.095,5.385
13.072,5.085,5.370
13.076,5.065,5.340
13.080,5.055,5.310
13.084,5.030,5.250
13.088,4.980,5.200
13.092,4.935,5.205
13.096,4.895,5.205
13.100,4.880,5.195
13.104,4.755,5.130
13.108,4.695,5.110
13.112,4.650,5.095
13.116,4.555,5.065
13.120,4.440,5.015
13.124,4.375,5.005
13.128,4.340,4.990
13.132,4.305,4.970
13.136,4.285,4.920
13.140,4.275,4.840
13.144,4.275,4.780
13.148,4.290,4.730
13.152,4.305,4.685
13.156,4.340,4.645
13.160,4.385,4.605
13.164,4.445,4.585
13.168,4.485,4.540
13.172,4.545,4.465
13.176,4.630,4.425
13.180,4.705,4.475
13.184,4.760,4.535
13.188,4.815,4.590
13.192,4.845,4.670
13.196,4.875,4.785
13.200,4.885,4.825
13.204,4.920,4.920
13.208,4.925,4.975
13.212,4.955,5.015
13.216,4.985,5.045
13.220,4.980,5.045
13.224,4.960,5.050
13.228,4.965,5.090
13.232,4.985,5.105
13.236,4.990,5.115
13.240,4.970,5.130
13.244,4.985,5.165
13.248,5.015,5.195
13.252,5.035,5.220
13.256,5.035,5.235
13.260,5.045,5.250
13.264,5.075,5.255
13.268,5.080,5.270
13.272,5.070,5.260
13.276,5.070,5.270
13.280,5.085,5.295
13.284,5.095,5.290
13.288,5.090,5.290
13.292,5.090,5.295
13.296,5.115,5.310
13.300,5.130,5.315
13.304,5.120,5.320
13.308,5.125,5.325
13.312,5.140,5.335
13.316,5.145,5.340
13.320,5.140,5.340
13.324,5.125,5.340
13.328,5.135,5.365
13.332,5.155,5.370
13.336,5.150,5.375
13.340,5.140,5.370
13.344,5.155,5.385
13.348,5.180,5.400
13.352,5.170,5.395
13.356,5.170,5.400
13.360,5.180,5.410
13.364,5.190,5.430
13.368,5.185,5.435
13.372,5.185,5.425
13.376,5.185,5.450
13.380,5.200,5.460
13.384,5.210,5.470
13.388,5.205,5.465
13.392,5.195,5.490
13.396,5.210,5.500
13.400,5.220,5.505
13.404,5.210,5.495
13.408,5.205,5.505
13.412,5.215,5.545
13.416,5.230,5.540
13.420,5.215,5.535
13.424,5.210,5.525
13.428,5.205,5.545
13.432,5.210,5.545
13.436,5.200,5.550
13.440,5.175,5.540
13.444,5.175,5.550
13.448,5.195,5.560
13.452,5.175,5.540
13.456,5.150,5.525
13.460,5.135,5.535
13.464,5.140,5.530
13.468,5.130,5.515
13.472,5.105,5.500
13.476,5.095,5.495
13.480,5.095,5.495
13.484,5.080,5.480
13.488,5.060,5.460
13.492,5.050,5.450
13.496,5.055,5.450
13.500,5.055,5.440
13.504,5.030,5.410
13.508,5.015,5.390
13.512,5.015,5.400
13.516,5.020,5.385
13.520,5.005,5.360
13.524,5.000,5.360
13.528,4.995,5.360
13.532,4.990,5.355
13.536,4.990,5.345
13.540,4.975,5.325
13.544,4.975,5.325
13.548,4.990,5.335
13.552,4.980,5.315
13.556,4.975,5.295
13.560,4.970,5.310
13.564,4.980,5.315
13.568,4.970,5.300
13.572,4.955,5.290
13.576,4.955,5.285
13.580,4.965,5.285
13.584,4.965,5.285
13.588,4.955,5.270
13.592,4.945,5.260
13.596,4.960,5.275
13.600,4.965,5.275
13.604,4.950,5.265
13.608,4.940,5.255
13.612,4.955,5.270
13.616,4.960,5.265
13.620,4.945,5.245
13.624,4.935,5.250
13.628,4.935,5.270
13.632,4.950,5.270
13.636,4.945,5.240
13.640,4.930,5.245
13.644,4.925,5.255
13.648,4.940,5.250
13.652,4.940,5.245
13.656,4.930,5.245
13.660,4.930,5.255
13.664,4.940,5.250
13.668,4.920,5.250
13.672,4.915,5.235
13.676,4.915,5.245
13.680,4.925,5.255
13.684,4.920,5.255
13.688,4.915,5.235
13.692,4.905,5.240
13.696,4.915,5.250
13.700,4.920,5.255
13.704,4.910,5.240
13.708,4.885,5.225
13.712,4.910,5.235
13.716,4.910,5.235
13.720,4.905,5.230
13.724,4.895,5.220
13.728,4.895,5.240
13.732,4.910,5.235
13.736,4.910,5.215
13.740,4.890,5.210
13.744,4.895,5.225
13.748,4.915,5.230
13.752,4.900,5.230
13.756,4.885,5.215
13.760,4.885,5.220
13.764,4.900,5.240
13.768,4.895,5.225
13.772,4.885,5.210
13.776,4.875,5.215
13.780,4.895,5.220
13.784,4.890,5.205
13.788,4.880,5.210
13.792,4.875,5.210
13.796,4.890,5.215
13.800,4.900,5.220
13.804,4.890,5.210
13.808,4.880,5.200
13.812,4.895,5.215
13.816,4.905,5.220
13.820,4.900,5.205
13.824,4.905,5.210
13.828,4.910,5.220
13.832,4.920,5.230
13.836,4.930,5.220
13.840,4.935,5.220
13.844,4.995,5.245
13.848,5.160,5.275
13.852,5.675,5.385
13.856,6.050,5.785
13.860,5.555,6.075
13.864,5.155,5.715
13.868,5.145,5.475
13.872,5.170,5.445
13.876,5.115,5.435
13.880,5.095,5.420
13.884,5.090,5.400
13.888,5.060,5.375
13.892,5.040,5.340
13.896,5.020,5.315
13.900,5.010,5.300
13.904,4.945,5.275
13.908,4.905,5.255
13.912,4.880,5.270
13.916,4.835,5.245
13.920,4.790,5.220
13.924,4.725,5.200
13.928,4.655,5.200
13.932,4.555,5.175
13.936,4.470,5.150
13.940,4.410,5.140
13.944,4.370,5.130
13.948,4.345,5.115
13.952,4.320,5.045
13.956,4.310,4.970
13.960,4.300,4.920
13.964,4.330,4.880
13.968,4.330,4.840
13.972,4.335,4.795
13.976,4.360,4.745
13.980,4.420,4.705
13.984,4.460,4.640
13.988,4.530,4.560
13.992,4.605,4.500
13.996,4.690,4.535
14.000,4.715,4.560
14.004,4.805,4.650
14.008,4.875,4.730
14.012,4.920,4.845
14.016,4.950,4.925
14.020,4.970,4.975
14.024,4.970,5.035
14.028,4.970,5.085
14.032,4.975,5.080
14.036,4.965,5.080
14.040,4.965,5.075
14.044,4.970,5.100
14.048,4.965,5.105
14.052,4.965,5.100
14.056,4.960,5.110
14.060,4.955,5.135
14.064,4.985,5.150
14.068,4.990,5.165
14.072,4.980,5.170
14.076,4.990,5.210
14.080,5.025,5.240
14.084,5.025,5.260
14.088,5.040,5.245
14.092,5.035,5.255
14.096,5.055,5.270
14.100,5.060,5.265
14.104,5.060,5.265
14.108,5.050,5.265
14.112,5.065,5.290
14.116,5.065,5.295
14.120,5.060,5.295
14.124,5.060,5.300
14.128,5.080,5.315
14.132,5.090,5.320
14.136,5.085,5.315
14.140,5.090,5.305
14.144,5.090,5.330
14.148,5.100,5.335
14.152,5.095,5.340
14.156,5.095,5.335
14.160,5.095,5.350
14.164,5.115,5.365
14.168,5.110,5.370
14.172,5.100,5.365
14.176,5.105,5.370
14.180,5.125,5.390
14.184,5.135,5.400
14.188,5.120,5.400
14.192,5.115,5.405
14.196,5.145,5.420
14.200,5.155,5.425
14.204,5.140,5.425
14.208,5.140,5.450
14.212,5.150,5.460
14.216,5.165,5.470
14.220,5.160,5.455
14.224,5.155,5.470
14.228,5.170,5.505
14.232,5.180,5.505
14.236,5.175,5.500
14.240,5.170,5.505
14.244,5.190,5.530
14.248,5.185,5.550
14.252,5.180,5.535
14.256,5.165,5.525
14.260,5.170,5.540
14.264,5.175,5.565
14.268,5.170,5.550
14.272,5.150,5.550
14.276,5.150,5.550
14.280,5.150,5.560
14.284,5.150,5.555
14.288,5.125,5.545
14.292,5.090,5.540
14.296,5.105,5.545
14.300,5.105,5.535
14.304,5.075,5.505
14.308,5.060,5.500
14.312,5.075,5.505
14.316,5.055,5.495
14.320,5.035,5.470
14.324,5.020,5.455
14.328,5.020,5.465
14.332,5.025,5.445
14.336,5.005,5.425
14.340,4.995,5.405
14.344,4.985,5.405
14.348,4.995,5.410
14.352,4.980,5.390
14.356,4.970,5.360
14.360,4.965,5.370
14.364,4.970,5.375
14.368,4.970,5.360
14.372,4.960,5.340
14.376,4.950,5.340
14.380,4.960,5.340
14.384,4.955,5.325
14.388,4.945,5.305
14.392,4.930,5.310
14.396,4.945,5.325
14.400,4.950,5.330
14.404,4.920,5.300
14.408,4.910,5.285
14.412,4.925,5.290
14.416,4.930,5.295
14.420,4.915,5.285
14.424,4.910,5.275
14.428,4.915,5.290
14.432,4.915,5.285
14.436,4.915,5.275
14.440,4.905,5.265
14.444,4.900,5.275
14.448,4.905,5.285
14.452,4.910,5.270
14.456,4.900,5.260
14.460,4.895,5.270
14.464,4.905,5.270
14.468,4.895,5.270
14.472,4.885,5.270
14.476,4.890,5.265
14.480,4.895,5.275
14.484,4.885,5.265
14.488,4.875,5.245
14.492,4.875,5.260
14.496,4.875,5.265
14.500,4.880,5.260
14.504,4.880,5.255
14.508,4.870,5.245
14.512,4.870,5.265
14.516,4.875,5.255
14.520,4.870,5.240
14.524,4.860,5.235
14.528,4.870,5.250
14.532,4.880,5.245
14.536,4.865,5.235
14.540,4.860,5.215
14.544,4.860,5.235
14.548,4.865,5.225
14.552,4.865,5.220
14.556,4.865,5.225
14.560,4.855,5.230
14.564,4.865,5.240
14.568,4.870,5.225
14.572,4.845,5.215
14.576,4.840,5.225
14.580,4.860,5.235
14.584,4.870,5.225
14.588,4.865,5.220
14.592,4.855,5.215
14.596,4.865,5.220
14.600,4.870,5.220
14.604,4.860,5.205
14.608,4.860,5.210
14.612,4.865,5.230
14.616,4.870,5.220
14.620,4.855,5.220
14.624,4.855,5.205
14.628,4.870,5.225
14.632,4.880,5.225
14.636,4.875,5.220
14.640,4.870,5.210
14.644,4.890,5.225
14.648,4.895,5.230
14.652,4.915,5.230
14.656,4.945,5.235
14.660,5.100,5.265
14.664,5.625,5.365
14.668,5.845,5.810
14.672,5.345,5.945
14.676,5.090,5.585
14.680,5.120,5.455
14.684,5.120,5.455
14.688,5.070,5.410
14.692,5.040,5.400
14.696,5.045,5.390
14.700,5.040,5.380
14.704,4.970,5.315
14.708,4.930,5.295
14.712,4.905,5.280
14.716,4.885,5.280
14.720,4.830,5.255
14.724,4.785,5.235
14.728,4.755,5.225
14.732,4.705,5.200
14.736,4.595,5.175
14.740,4.475,5.140
14.744,4.420,5.145
14.748,4.405,5.130
14.752,4.350,5.090
14.756,4.320,5.030
14.760,4.320,4.970
14.764,4.340,4.905
14.768,4.345,4.855
14.772,4.355,4.805
14.776,4.350,4.745
14.780,4.385,4.705
14.784,4.435,4.630
14.788,4.480,4.560
14.792,4.545,4.490
14.796,4.640,4.515
14.800,4.670,4.530
14.804,4.755,4.645
14.808,4.805,4.725
14.812,4.850,4.840
14.816,4.875,4.935
14.820,4.875,4.985
14.824,4.875,5.025
14.828,4.910,5.065
14.832,4.925,5.070
14.836,4.925,5.075
14.840,4.930,5.085
14.844,4.925,5.120
14.848,4.935,5.130
14.852,4.935,5.140
14.856,4.920,5.155
14.860,4.940,5.180
14.864,4.970,5.205
14.868,4.980,5.215
14.872,4.990,5.240
14.876,5.010,5.270
14.880,5.050,5.290
14.884,5.055,5.290
14.888,5.060,5.285
14.892,5.050,5.290
14.896,5.075,5.305
14.900,5.085,5.310
14.904,5.090,5.300
14.908,5.090,5.310
14.912,5.125,5.320
14.916,5.135,5.325
14.920,5.130,5.320
14.924,5.120,5.340
14.928,5.135,5.370
14.932,5.130,5.365
14.936,5.110,5.355
14.940,5.100,5.345
14.944,5.110,5.370
14.948,5.120,5.385
14.952,5.110,5.375
14.956,5.110,5.365
14.960,5.105,5.375
14.964,5.140,5.390
14.968,5.135,5.395
14.972,5.130,5.385
14.976,5.130,5.405
14.980,5.150,5.425
14.984,5.160,5.425
14.988,5.150,5.430
14.992,5.150,5.435
14.996,5.170,5.470
15.000,5.175,5.475
15.004,5.170,5.465
15.008,5.170,5.475
15.012,5.185,5.500
15.016,5.195,5.515
15.020,5.190,5.505
15.024,5.185,5.520
15.028,5.185,5.545
15.032,5.200,5.545
15.036,5.200,5.545
15.040,5.175,5.550
15.044,5.165,5.565
15.048,5.190,5.570
15.052,5.175,5.565
15.056,5.145,5.560
15.060,5.155,5.560
15.064,5.155,5.560
15.068,5.140,5.560
15.072,5.120,5.545
15.076,5.100,5.545
15.080,5.100,5.550
15.084,5.090,5.540
15.088,5.065,5.510
15.092,5.055,5.500
15.096,5.065,5.500
15.100,5.060,5.485
15.104,5.015,5.470
15.108,4.995,5.450
15.112,5.010,5.445
15.116,5.010,5.430
15.120,5.000,5.415
15.124,4.980,5.395
15.128,4.980,5.390
15.132,4.985,5.390
15.136,4.960,5.375
15.140,4.945,5.350
15.144,4.950,5.345
15.148,4.965,5.350
15.152,4.950,5.330
15.156,4.930,5.310
15.160,4.925,5.320
15.164,4.940,5.325
15.168,4.940,5.310
15.172,4.930,5.295
15.176,4.915,5.300
15.180,4.930,5.300
15.184,4.915,5.295
15.188,4.915,5.280
15.192,4.905,5.280
15.196,4.905,5.290
15.200,4.915,5.295
15.204,4.900,5.275
15.208,4.890,5.265
15.212,4.900,5.275
15.216,4.895,5.280
15.220,4.875,5.265
15.224,4.880,5.275
15.228,4.885,5.290
15.232,4.890,5.285
15.236,4.885,5.270
15.240,4.875,5.260
15.244,4.870,5.270
15.248,4.875,5.270
15.252,4.870,5.265
15.256,4.865,5.250
15.260,4.865,5.265
15.264,4.880,5.270
15.268,4.875,5.265
15.272,4.855,5.255
15.276,4.850,5.265
15.280,4.855,5.270
15.284,4.860,5.265
15.288,4.845,5.250
15.292,4.835,5.250
15.296,4.840,5.255
15.300,4.840,5.260
15.304,4.840,5.240
15.308,4.830,5.240
15.312,4.835,5.245
15.316,4.840,5.240
15.320,4.845,5.240
15.324,4.830,5.235
15.328,4.850,5.240
15.332,4.855,5.240
15.336,4.850,5.225
15.340,4.830,5.215
15.344,4.835,5.225
15.348,4.845,5.235
15.352,4.855,5.220
15.356,4.845,5.220
15.360,4.840,5.235
15.364,4.855,5.235
15.368,4.845,5.225
15.372,4.840,5.220
15.376,4.840,5.225
15.380,4.855,5.230
15.384,4.860,5.225
15.388,4.850,5.210
15.392,4.835,5.225
15.396,4.860,5.240
15.400,4.865,5.235
15.404,4.855,5.225
15.408,4.850,5.225
15.412,4.865,5.245
15.416,4.880,5.250
15.420,4.905,5.245
15.424,5.000,5.260
15.428,5.315,5.340
15.432,5.885,5.600
15.436,5.775,6.050
15.440,5.220,5.900
15.444,5.080,5.540
15.448,5.110,5.460
15.452,5.080,5.450
15.456,5.015,5.415
15.460,5.010,5.410
15.464,5.010,5.390
15.468,4.965,5.340
15.472,4.915,5.290
15.476,4.875,5.280
15.480,4.855,5.285
15.484,4.820,5.265
15.488,4.755,5.230
15.492,4.710,5.225
15.496,4.685,5.215
15.500,4.665,5.205
15.504,4.490,5.150
15.508,4.410,5.135
15.512,4.370,5.135
15.516,4.330,5.105
15.520,4.310,5.045
15.524,4.290,4.970
15.528,4.300,4.920
15.532,4.315,4.875
15.536,4.325,4.815
15.540,4.320,4.765
15.544,4.350,4.725
15.548,4.400,4.665
15.552,4.455,4.585
15.556,4.515,4.495
15.560,4.610,4.500
15.564,4.670,4.565
15.568,4.720,4.635
15.572,4.765,4.715
15.576,4.825,4.825
15.580,4.865,4.920
15.584,4.875,4.980
15.588,4.880,5.015
15.592,4.880,5.045
15.596,4.905,5.065
15.600,4.915,5.070
15.604,4.935,5.075
15.608,4.925,5.080
15.612,4.930,5.100
15.616,4.945,5.125
15.620,4.935,5.135
15.624,4.935,5.150
15.628,4.970,5.190
15.632,4.980,5.220
15.636,4.985,5.240
15.640,4.995,5.250
15.644,5.020,5.275
15.648,5.025,5.285
15.652,5.020,5.300
15.656,5.020,5.275
15.660,5.030,5.305
15.664,5.050,5.310
15.668,5.050,5.315
15.672,5.045,5.310
15.676,5.040,5.320
15.680,5.065,5.335
15.684,5.065,5.340
15.688,5.055,5.335
15.692,5.055,5.365
15.696,5.075,5.380
15.700,5.085,5.385
15.704,5.070,5.380
15.708,5.060,5.385
15.712,5.070,5.415
15.716,5.085,5.425
15.720,5.085,5.435
15.724,5.075,5.435
15.728,5.095,5.465
15.732,5.110,5.465
15.736,5.110,5.455
15.740,5.090,5.455
15.744,5.115,5.480
15.748,5.155,5.470
15.752,5.150,5.480
15.756,5.145,5.480
15.760,5.165,5.500
15.764,5.185,5.520
15.768,5.190,5.515
15.772,5.185,5.510
15.776,5.185,5.535
15.780,5.215,5.555
15.784,5.240,5.555
15.788,5.235,5.560
15.792,5.235,5.575
15.796,5.255,5.600
15.800,5.260,5.610
15.804,5.215,5.605
15.808,5.190,5.605
15.812,5.185,5.605
15.816,5.200,5.615
15.820,5.175,5.605
15.824,5.155,5.600
15.828,5.150,5.600
15.832,5.140,5.595
15.836,5.120,5.585
15.840,5.095,5.570
15.844,5.085,5.565
15.848,5.090,5.560
15.852,5.070,5.540
15.856,5.055,5.525
15.860,5.040,5.520
15.864,5.040,5.510
15.868,5.030,5.495
15.872,5.010,5.470
15.876,5.000,5.465
15.880,5.000,5.460
15.884,4.990,5.445
15.888,4.980,5.420
15.892,4.965,5.410
15.896,4.975,5.405
15.900,4.975,5.405
15.904,4.955,5.365
15.908,4.950,5.375
15.912,4.945,5.390
15.916,4.955,5.365
15.920,4.935,5.340
15.924,4.920,5.335
15.928,4.935,5.340
15.932,4.935,5.335
15.936,4.930,5.330
15.940,4.925,5.305
15.944,4.925,5.315
15.948,4.930,5.325
15.952,4.915,5.300
15.956,4.905,5.290
15.960,4.900,5.300
15.964,4.910,5.295
15.968,4.910,5.290
15.972,4.895,5.275
15.976,4.895,5.280
15.980,4.905,5.290
15.984,4.895,5.285
15.988,4.890,5.260
15.992,4.880,5.265
15.996,4.890,5.275
16.000,4.895,5.280
16.004,4.885,5.270
16.008,4.875,5.260
16.012,4.890,5.280
16.016,4.890,5.280
16.020,4.870,5.270
16.024,4.875,5.255
16.028,4.880,5.280
16.032,4.885,5.270
16.036,4.870,5.260
16.040,4.860,5.255
16.044,4.865,5.260
16.048,4.865,5.265
16.052,4.870,5.255
16.056,4.850,5.255
16.060,4.860,5.260
16.064,4.870,5.270
16.068,4.870,5.260
16.072,4.845,5.250
16.076,4.850,5.255
16.080,4.860,5.265
16.084,4.855,5.260
16.088,4.850,5.235
16.092,4.835,5.245
16.096,4.850,5.250
16.100,4.855,5.250
16.104,4.845,5.240
16.108,4.840,5.235
16.112,4.845,5.240
16.116,4.855,5.245
16.120,4.840,5.240
16.124,4.835,5.235
16.128,4.835,5.250
16.132,4.860,5.240
16.136,4.850,5.235
16.140,4.830,5.220
16.144,4.835,5.235
16.148,4.850,5.240
16.152,4.840,5.235
16.156,4.835,5.230
16.160,4.835,5.235
16.164,4.845,5.235
16.168,4.845,5.235
16.172,4.835,5.235
16.176,4.830,5.235
16.180,4.855,5.245
16.184,4.850,5.230
16.188,4.845,5.210
16.192,4.845,5.235
16.196,4.860,5.245
16.200,4.855,5.250
16.204,4.875,5.240
16.208,4.875,5.235
16.212,4.905,5.255
16.216,4.990,5.270
16.220,5.215,5.300
16.224,5.710,5.500
16.228,5.795,5.985
16.232,5.315,5.965
16.236,5.085,5.600
16.240,5.100,5.485
16.244,5.095,5.470
16.248,5.055,5.445
16.252,5.025,5.420
16.256,5.000,5.405
16.260,4.975,5.395
16.264,4.960,5.370
16.268,4.915,5.315
16.272,4.870,5.285
16.276,4.840,5.265
16.280,4.835,5.270
16.284,4.805,5.260
16.288,4.760,5.240
16.292,4.725,5.220
16.296,4.700,5.215
16.300,4.695,5.210
16.304,4.560,5.160
16.308,4.445,5.140
16.312,4.395,5.120
16.316,4.365,5.115
16.320,4.330,5.075
16.324,4.295,5.030
16.328,4.305,4.995
16.332,4.305,4.920
16.336,4.305,4.850
16.340,4.315,4.810
16.344,4.330,4.775
16.348,4.350,4.730
16.352,4.375,4.665
16.356,4.415,4.595
16.360,4.480,4.545
16.364,4.565,4.480
16.368,4.635,4.485
16.372,4.680,4.540
16.376,4.725,4.615
16.380,4.785,4.690
16.384,4.820,4.765
16.388,4.840,4.855
16.392,4.840,4.935
16.396,4.875,4.990
16.400,4.885,5.010
16.404,4.910,5.035
16.408,4.905,5.050
16.412,4.930,5.070
16.416,4.945,5.085
16.420,4.940,5.085
16.424,4.935,5.080
16.428,4.945,5.100
16.432,4.955,5.120
16.436,4.965,5.130
16.440,4.955,5.150
16.444,4.980,5.180
16.448,5.000,5.210
16.452,5.005,5.235
16.456,5.010,5.250
16.460,5.030,5.275
16.464,5.055,5.295
16.468,5.055,5.295
16.472,5.060,5.280
16.476,5.045,5.285
16.480,5.060,5.305
16.484,5.065,5.310
16.488,5.070,5.310
16.492,5.075,5.320
16.496,5.085,5.335
16.500,5.095,5.330
16.504,5.085,5.325
16.508,5.075,5.335
16.512,5.090,5.350
16.516,5.105,5.360
16.520,5.100,5.340
16.524,5.105,5.365
16.528,5.115,5.380
16.532,5.120,5.375
16.536,5.115,5.375
16.540,5.115,5.375
16.544,5.125,5.395
16.548,5.155,5.400
16.552,5.150,5.405
16.556,5.135,5.405
16.560,5.160,5.425
16.564,5.170,5.435
16.568,5.170,5.430
16.572,5.160,5.430
16.576,5.160,5.460
16.580,5.185,5.475
16.584,5.190,5.480
16.588,5.185,5.480
16.592,5.180,5.495
16.596,5.205,5.510
16.600,5.200,5.515
16.604,5.210,5.510
16.608,5.195,5.535
16.612,5.210,5.555
16.616,5.215,5.550
16.620,5.220,5.555
16.624,5.205,5.565
16.628,5.205,5.590
16.632,5.225,5.595
16.636,5.220,5.600
16.640,5.215,5.595
16.644,5.230,5.620
16.648,5.235,5.635
16.652,5.210,5.630
16.656,5.195,5.625
16.660,5.200,5.640
16.664,5.200,5.650
16.668,5.185,5.650
16.672,5.170,5.635
16.676,5.150,5.645
16.680,5.160,5.650
16.684,5.140,5.650
16.688,5.120,5.630
16.692,5.100,5.635
16.696,5.095,5.625
16.700,5.090,5.615
16.704,5.065,5.585
16.708,5.045,5.575
16.712,5.050,5.560
16.716,5.055,5.545
16.720,5.060,5.520
16.724,5.055,5.500
16.728,5.045,5.500
16.732,5.050,5.475
16.736,5.045,5.460
16.740,5.030,5.430
16.744,5.030,5.435
16.748,5.050,5.435
16.752,5.050,5.400
16.756,5.035,5.395
16.760,5.035,5.390
16.764,5.065,5.395
16.768,5.055,5.385
16.772,5.045,5.380
16.776,5.025,5.365
16.780,5.005,5.365
16.784,4.990,5.345
16.788,4.975,5.330
16.792,4.955,5.325
16.796,4.965,5.335
16.800,4.965,5.340
16.804,4.950,5.315
16.808,4.935,5.305
16.812,4.940,5.305
16.816,4.950,5.300
16.820,4.935,5.270
16.824,4.915,5.280
16.828,4.920,5.275
16.832,4.925,5.285
16.836,4.915,5.275
16.840,4.905,5.270
16.844,4.900,5.275
16.848,4.910,5.290
16.852,4.910,5.275
16.856,4.895,5.260
16.860,4.905,5.275
16.864,4.905,5.270
16.868,4.905,5.270
16.872,4.905,5.255
16.876,4.885,5.260
16.880,4.900,5.265
16.884,4.895,5.275
16.888,4.885,5.255
16.892,4.875,5.255
16.896,4.885,5.260
16.900,4.895,5.260
16.904,4.885,5.250
16.908,4.880,5.245
16.912,4.890,5.260
16.916,4.895,5.255
16.920,4.875,5.240
16.924,4.865,5.240
16.928,4.870,5.245
16.932,4.875,5.245
16.936,4.875,5.235
16.940,4.860,5.225
16.944,4.870,5.235
16.948,4.890,5.245
16.952,4.875,5.235
16.956,4.875,5.215
16.960,4.870,5.230
16.964,4.885,5.230
16.968,4.875,5.240
16.972,4.865,5.230
16.976,4.865,5.225
16.980,4.875,5.240
16.984,4.880,5.240
16.988,4.875,5.230
16.992,4.875,5.215
16.996,4.885,5.240
17.000,4.895,5.240
17.004,4.875,5.220
17.008,4.865,5.220
17.012,4.875,5.235
17.016,4.900,5.245
17.020,4.875,5.235
17.024,4.875,5.240
17.028,4.895,5.240
17.032,4.895,5.255
17.036,4.895,5.265
17.040,4.900,5.285
17.044,4.945,5.320
17.048,5.010,5.355
17.052,5.095,5.380
17.056,5.230,5.405
17.060,5.525,5.480
17.064,6.130,5.625
17.068,6.425,6.030
17.072,6.135,6.255
17.076,6.070,6.005
17.080,6.285,5.870
17.084,6.415,5.890
17.088,6.400,5.860
17.092,6.185,5.740
17.096,5.900,5.470
17.100,5.810,5.370
17.104,5.395,4.950
17.108,5.180,4.865
17.112,5.005,4.870
17.116,4.890,4.910
17.120,4.835,4.970
17.124,4.795,5.050
17.128,4.800,5.140
17.132,4.835,5.180
17.136,4.840,5.185
17.140,4.830,5.185
17.144,4.830,5.210
17.148,4.845,5.205
17.152,4.830,5.190
17.156,4.825,5.180
17.160,4.820,5.190
17.164,4.820,5.185
17.168,4.815,5.180
17.172,4.830,5.175
17.176,4.820,5.170
17.180,4.825,5.180
17.184,4.810,5.175
17.188,4.790,5.155
17.192,4.790,5.155
17.196,4.795,5.165
17.200,4.800,5.165
17.204,4.765,5.145
17.208,4.770,5.145
17.212,4.770,5.160
17.216,4.775,5.155
17.220,4.750,5.140
17.224,4.740,5.130
17.228,4.755,5.150
17.232,4.765,5.145
17.236,4.755,5.130
17.240,4.745,5.120
17.244,4.735,5.135
17.248,4.745,5.135
17.252,4.740,5.125
17.256,4.725,5.095
17.260,4.725,5.110
17.264,4.735,5.110
17.268,4.720,5.110
17.272,4.710,5.090
17.276,4.700,5.105
17.280,4.710,5.105
17.284,4.710,5.105
17.288,4.700,5.090
17.292,4.690,5.090
17.296,4.700,5.095
17.300,4.700,5.100
17.304,4.675,5.075
17.308,4.675,5.075
17.312,4.690,5.090
17.316,4.680,5.085
17.320,4.675,5.080
17.324,4.660,5.070
17.328,4.670,5.085
17.332,4.675,5.085
17.336,4.670,5.085
17.340,4.675,5.070
17.344,4.680,5.090
17.348,4.695,5.085
17.352,4.690,5.090
17.356,4.685,5.070
17.360,4.685,5.095
17.364,4.705,5.115
17.368,4.700,5.105
17.372,4.710,5.100
17.376,4.715,5.125
17.380,4.735,5.140
17.384,4.745,5.155
17.388,4.745,5.150
17.392,4.760,5.165
17.396,4.775,5.185
17.400,4.785,5.195
17.404,4.795,5.190
17.408,4.805,5.210
17.412,4.830,5.240
17.416,4.850,5.240
17.420,4.850,5.255
17.424,4.845,5.260
17.428,4.880,5.285
17.432,4.890,5.285
17.436,4.895,5.280
17.440,4.900,5.290
17.444,4.915,5.305
17.448,4.935,5.305
17.452,4.925,5.295
17.456,4.925,5.300
17.460,4.935,5.315
17.464,4.940,5.310
17.468,4.935,5.315
17.472,4.930,5.305
17.476,4.930,5.315
17.480,4.960,5.315
17.484,4.955,5.315
17.488,4.940,5.295
17.492,4.935,5.305
17.496,4.940,5.310
17.500,4.950,5.310
17.504,4.945,5.275
17.508,4.935,5.285
17.512,4.925,5.300
17.516,4.940,5.300
17.520,4.925,5.295
17.524,4.925,5.285
17.528,4.940,5.295
17.532,4.940,5.285
17.536,4.935,5.280
17.540,4.925,5.270
17.544,4.925,5.285
17.548,4.930,5.285
17.552,4.925,5.285
17.556,4.910,5.270
17.560,4.920,5.285
17.564,4.930,5.275
17.568,4.930,5.280
17.572,4.925,5.270
17.576,4.900,5.280
17.580,4.915,5.285
17.584,4.920,5.280
17.588,4.915,5.275
17.592,4.910,5.275
17.596,4.930,5.280
17.600,4.940,5.285
17.604,4.910,5.260
17.608,4.900,5.265
17.612,4.910,5.280
17.616,4.925,5.275
17.620,4.925,5.270
17.624,4.905,5.265
17.628,4.920,5.285
17.632,4.930,5.275
17.636,4.920,5.265
17.640,4.900,5.255
17.644,4.915,5.265
17.648,4.930,5.270
17.652,4.920,5.265
17.656,4.910,5.270
17.660,4.905,5.275
17.664,4.920,5.295
17.668,4.900,5.280
17.672,4.890,5.275
17.676,4.885,5.285
17.680,4.890,5.295
17.684,4.895,5.295
17.688,4.885,5.270
17.692,4.890,5.285
17.696,4.900,5.295
17.700,4.905,5.285
17.704,4.895,5.265
17.708,4.900,5.260
17.712,4.915,5.280
17.716,4.930,5.275
17.720,4.935,5.260
17.724,4.935,5.260
17.728,4.940,5.275
17.732,4.955,5.275
17.736,4.950,5.270
17.740,4.960,5.240
17.744,4.990,5.260
17.748,5.000,5.260
17.752,5.005,5.265
17.756,4.980,5.260
17.760,4.965,5.265
17.764,4.965,5.270
17.768,4.950,5.255
17.772,4.935,5.245
17.776,4.925,5.245
17.780,4.925,5.245
17.784,4.925,5.235
17.788,4.910,5.230
17.792,4.905,5.220
17.796,4.905,5.230
17.800,4.915,5.225
17.804,4.905,5.220
17.808,4.905,5.220
17.812,4.915,5.230
17.816,4.915,5.225
17.820,4.910,5.210
17.824,4.910,5.215
17.828,4.915,5.235
17.832,4.920,5.240
17.836,4.915,5.235
17.840,4.910,5.225
17.844,4.910,5.240
17.848,4.930,5.240
17.852,4.930,5.240
17.856,4.935,5.235
17.860,4.930,5.245
17.864,4.960,5.260
17.868,4.960,5.260
17.872,4.980,5.250
17.876,5.035,5.270
17.880,5.220,5.310
17.884,5.745,5.470
17.888,5.950,5.905
17.892,5.440,6.035
17.896,5.180,5.690
17.900,5.155,5.595
17.904,5.255,5.540
17.908,5.300,5.535
17.912,5.380,5.545
17.916,5.480,5.550
17.920,5.560,5.555
17.924,5.650,5.535
17.928,5.810,5.550
17.932,5.970,5.570
17.936,6.085,5.600
17.940,6.130,5.655
17.944,6.055,5.660
17.948,5.875,5.525
17.952,5.640,5.295
17.956,5.440,5.090
17.960,5.270,4.975
17.964,5.090,4.910
17.968,4.905,4.905
17.972,4.805,4.920
17.976,4.800,4.985
17.980,4.825,5.040
17.984,4.830,5.115
17.988,4.835,5.155
17.992,4.825,5.185
17.996,4.845,5.210
18.000,4.850,5.205
18.004,4.850,5.210
18.008,4.840,5.210
18.012,4.850,5.215
18.016,4.870,5.205
18.020,4.860,5.185
18.024,4.840,5.185
18.028,4.850,5.195
18.032,4.850,5.195
18.036,4.850,5.175
18.040,4.825,5.165
18.044,4.840,5.175
18.048,4.855,5.185
18.052,4.840,5.175
18.056,4.830,5.165
18.060,4.835,5.170
18.064,4.845,5.180
18.068,4.835,5.180
18.072,4.830,5.170
18.076,4.820,5.165
18.080,4.830,5.170
18.084,4.825,5.170
18.088,4.820,5.150
18.092,4.810,5.160
18.096,4.825,5.165
18.100,4.825,5.160
18.104,4.810,5.140
18.108,4.805,5.140
18.112,4.815,5.160
18.116,4.810,5.150
18.120,4.800,5.145
18.124,4.795,5.135
18.128,4.780,5.145
18.132,4.800,5.150
18.136,4.790,5.145
18.140,4.775,5.135
18.144,4.790,5.145
18.148,4.800,5.140
18.152,4.780,5.135
18.156,4.785,5.130
18.160,4.790,5.140
18.164,4.805,5.135
18.168,4.790,5.135
18.172,4.775,5.125
18.176,4.780,5.130
18.180,4.790,5.140
18.184,4.795,5.140
18.188,4.790,5.130
18.192,4.785,5.140
18.196,4.800,5.150
18.200,4.805,5.155
18.204,4.800,5.145
18.208,4.790,5.150
18.212,4.810,5.165
18.216,4.815,5.155
18.220,4.810,5.150
18.224,4.800,5.150
18.228,4.835,5.190
18.232,4.840,5.180
18.236,4.840,5.185
18.240,4.835,5.185
18.244,4.840,5.215
18.248,4.870,5.220
18.252,4.855,5.225
18.256,4.865,5.215
18.260,4.870,5.240
18.264,4.890,5.265
18.268,4.895,5.265
18.272,4.890,5.270
18.276,4.895,5.285
18.280,4.925,5.300
18.284,4.930,5.295
18.288,4.935,5.295
18.292,4.930,5.305
18.296,4.955,5.320
18.300,4.970,5.325
18.304,4.955,5.300
18.308,4.955,5.310
18.312,4.965,5.330
18.316,4.975,5.330
18.320,4.970,5.310
18.324,4.965,5.310
18.328,4.965,5.325
18.332,4.970,5.320
18.336,4.960,5.305
18.340,4.955,5.290
18.344,4.960,5.305
18.348,4.965,5.315
18.352,4.955,5.305
18.356,4.945,5.290
18.360,4.940,5.300
18.364,4.955,5.310
18.368,4.950,5.295
18.372,4.940,5.270
18.376,4.930,5.285
18.380,4.935,5.290
18.384,4.945,5.290
18.388,4.930,5.280
18.392,4.910,5.275
18.396,4.940,5.285
18.400,4.950,5.290
18.404,4.930,5.265
18.408,4.925,5.280
18.412,4.940,5.290
18.416,4.930,5.290
18.420,4.930,5.270
18.424,4.915,5.270
18.428,4.930,5.285
18.432,4.940,5.285
18.436,4.935,5.275
18.440,4.925,5.265
18.444,4.935,5.280
18.448,4.935,5.285
18.452,4.940,5.280
18.456,4.920,5.270
18.460,4.930,5.270
18.464,4.950,5.280
18.468,4.945,5.290
18.472,4.935,5.275
18.476,4.930,5.270
18.480,4.945,5.285
18.484,4.955,5.285
18.488,4.945,5.270
18.492,4.955,5.270
18.496,4.955,5.280
18.500,4.960,5.285
18.504,4.945,5.265
18.508,4.945,5.255
18.512,4.960,5.275
18.516,4.960,5.275
18.520,4.955,5.255
18.524,4.945,5.250
18.528,4.945,5.255
18.532,4.960,5.265
18.536,4.950,5.260
18.540,4.940,5.250
18.544,4.950,5.260
18.548,4.965,5.260
18.552,4.955,5.255
18.556,4.945,5.250
18.560,4.940,5.265
18.564,4.945,5.270
18.568,4.940,5.265
18.572,4.925,5.265
18.576,4.910,5.270
18.580,4.925,5.280
18.584,4.935,5.290
18.588,4.915,5.280
18.592,4.910,5.275
18.596,4.935,5.290
18.600,4.950,5.285
18.604,4.920,5.265
18.608,4.920,5.265
18.612,4.935,5.265
18.616,4.955,5.265
18.620,4.945,5.260
18.624,4.950,5.245
18.628,4.955,5.260
18.632,4.980,5.265
18.636,4.975,5.260
18.640,4.975,5.245
18.644,4.990,5.250
18.648,5.015,5.255
18.652,5.020,5.255
18.656,5.015,5.240
18.660,5.025,5.255
18.664,5.020,5.275
18.668,5.010,5.275
18.672,5.000,5.260
18.676,4.995,5.250
18.680,4.995,5.245
18.684,4.985,5.255
18.688,4.970,5.250
18.692,4.970,5.240
18.696,4.990,5.260
18.700,5.000,5.255
18.704,5.015,5.245
18.708,5.105,5.265
18.712,5.445,5.310
18.716,5.970,5.495
18.720,5.850,5.915
18.724,5.350,5.895
18.728,5.190,5.575
18.732,5.225,5.480
18.736,5.195,5.440
18.740,5.150,5.415
18.744,5.145,5.405
18.748,5.155,5.400
18.752,5.135,5.380
18.756,5.115,5.355
18.760,5.105,5.340
18.764,5.100,5.310
18.768,5.060,5.300
18.772,5.030,5.275
18.776,4.995,5.290
18.780,4.965,5.285
18.784,4.920,5.285
18.788,4.885,5.255
18.792,4.840,5.245
18.796,4.800,5.230
18.800,4.780,5.225
18.804,4.600,5.195
18.808,4.550,5.185
18.812,4.510,5.180
18.816,4.465,5.150
18.820,4.425,5.115
18.824,4.410,5.075
18.828,4.420,5.035
18.832,4.445,4.980
18.836,4.480,4.945
18.840,4.510,4.925
18.844,4.550,4.915
18.848,4.585,4.920
18.852,4.610,4.920
18.856,4.645,4.910
18.860,4.715,4.900
18.864,4.830,4.865
18.868,4.900,4.850
18.872,4.930,4.870
18.876,4.960,4.925
18.880,5.005,4.950
18.884,5.015,4.970
18.888,4.980,4.965
18.892,4.955,5.005
18.896,4.960,5.050
18.900,4.955,5.060
18.904,4.930,5.115
18.908,4.920,5.145
18.912,4.955,5.180
18.916,4.980,5.200
18.920,4.970,5.195
18.924,4.990,5.210
18.928,5.005,5.220
18.932,5.020,5.225
18.936,5.015,5.220
18.940,5.025,5.205
18.944,5.025,5.220
18.948,5.060,5.225
18.952,5.050,5.215
18.956,5.050,5.215
18.960,5.055,5.225
18.964,5.070,5.240
18.968,5.070,5.240
18.972,5.065,5.240
18.976,5.070,5.250
18.980,5.090,5.255
18.984,5.090,5.255
18.988,5.085,5.235
18.992,5.070,5.245
18.996,5.105,5.270
19.000,5.115,5.270
19.004,5.110,5.255
19.008,5.100,5.260
19.012,5.110,5.275
19.016,5.125,5.270
19.020,5.135,5.275
19.024,5.125,5.280
19.028,5.140,5.285
19.032,5.155,5.295
19.036,5.150,5.290
19.040,5.145,5.295
19.044,5.160,5.310
19.048,5.175,5.315
19.052,5.175,5.310
19.056,5.160,5.310
19.060,5.175,5.320
19.064,5.195,5.335
19.068,5.185,5.340
19.072,5.180,5.325
19.076,5.185,5.355
19.080,5.195,5.365
19.084,5.200,5.365
19.088,5.190,5.360
19.092,5.190,5.370
19.096,5.200,5.385
19.100,5.205,5.385
19.104,5.200,5.385
19.108,5.190,5.385
19.112,5.185,5.410
19.116,5.200,5.415
19.120,5.185,5.395
19.124,5.170,5.400
19.128,5.170,5.415
19.132,5.165,5.405
19.136,5.140,5.395
19.140,5.115,5.380
19.144,5.115,5.400
19.148,5.120,5.390
19.152,5.100,5.380
19.156,5.085,5.370
19.160,5.075,5.370
19.164,5.075,5.375
19.168,5.055,5.360
19.172,5.035,5.350
19.176,5.015,5.350
19.180,5.030,5.355
19.184,5.010,5.345
19.188,4.995,5.320
19.192,4.985,5.320
19.196,4.995,5.325
19.200,5.000,5.325
19.204,4.970,5.295
19.208,4.965,5.290
19.212,4.975,5.300
19.216,4.970,5.290
19.220,4.955,5.280
19.224,4.955,5.275
19.228,4.965,5.290
19.232,4.975,5.280
19.236,4.960,5.265
19.240,4.950,5.255
19.244,4.950,5.270
19.248,4.975,5.260
19.252,4.960,5.255
19.256,4.950,5.250
19.260,4.955,5.245
19.264,4.955,5.260
19.268,4.965,5.245
19.272,4.945,5.245
19.276,4.945,5.245
19.280,4.955,5.260
19.284,4.965,5.245
19.288,4.945,5.235
19.292,4.945,5.245
19.296,4.960,5.245
19.300,4.960,5.235
19.304,4.945,5.230
19.308,4.940,5.230
19.312,4.945,5.240
19.316,4.945,5.250
19.320,4.935,5.240
19.324,4.930,5.235
19.328,4.945,5.240
19.332,4.950,5.240
19.336,4.940,5.230
19.340,4.930,5.225
19.344,4.930,5.240
19.348,4.945,5.225
19.352,4.920,5.230
19.356,4.915,5.220
19.360,4.930,5.235
19.364,4.930,5.235
19.368,4.925,5.230
19.372,4.915,5.215
19.376,4.910,5.220
19.380,4.920,5.225
19.384,4.915,5.225
19.388,4.905,5.215
19.392,4.905,5.225
19.396,4.910,5.230
19.400,4.920,5.225
19.404,4.910,5.210
19.408,4.900,5.210
19.412,4.910,5.235
19.416,4.905,5.220
19.420,4.890,5.210
19.424,4.895,5.205
19.428,4.900,5.225
19.432,4.900,5.210
19.436,4.895,5.205
19.440,4.885,5.195
19.444,4.885,5.205
19.448,4.900,5.205
19.452,4.900,5.210
19.456,4.890,5.205
19.460,4.895,5.210
19.464,4.915,5.215
19.468,4.900,5.205
19.472,4.885,5.200
19.476,4.885,5.200
19.480,4.890,5.215
19.484,4.885,5.210
19.488,4.870,5.215
19.492,4.870,5.225
19.496,4.870,5.230
19.500,4.880,5.235
19.504,4.865,5.230
19.508,4.865,5.225
19.512,4.875,5.240
19.516,4.885,5.245
19.520,4.890,5.230
19.524,4.890,5.225
19.528,4.940,5.250
19.532,5.030,5.260
19.536,5.230,5.275
19.540,5.775,5.480
19.544,5.925,5.930
19.548,5.440,6.015
19.552,5.170,5.655
19.556,5.170,5.460
19.560,5.175,5.460
19.564,5.150,5.420
19.568,5.145,5.405
19.572,5.135,5.380
19.576,5.120,5.365
19.580,5.110,5.365
19.584,5.070,5.330
19.588,5.025,5.290
19.592,4.990,5.260
19.596,4.960,5.265
19.600,4.955,5.255
19.604,4.885,5.220
19.608,4.835,5.210
19.612,4.810,5.205
19.616,4.760,5.175
19.620,4.695,5.145
19.624,4.600,5.120
19.628,4.530,5.120
19.632,4.500,5.100
19.636,4.445,5.080
19.640,4.395,5.050
19.644,4.375,4.995
19.648,4.390,4.940
19.652,4.380,4.865
19.656,4.375,4.820
19.660,4.400,4.800
19.664,4.440,4.760
19.668,4.440,4.715
19.672,4.470,4.665
19.676,4.515,4.630
19.680,4.595,4.570
19.684,4.655,4.495
19.688,4.705,4.505
19.692,4.745,4.575
19.696,4.800,4.630
19.700,4.820,4.645
19.704,4.860,4.755
19.708,4.870,4.840
19.712,4.895,4.920
19.716,4.920,4.955
19.720,4.925,4.985
19.724,4.920,4.995
19.728,4.950,5.020
19.732,4.965,5.035
19.736,4.945,5.035
19.740,4.945,5.035
19.744,4.950,5.055
19.748,4.975,5.075
19.752,4.960,5.080
19.756,4.960,5.105
19.760,4.990,5.140
19.764,5.000,5.170
19.768,5.020,5.185
19.772,5.020,5.190
19.776,5.035,5.210
19.780,5.060,5.220
19.784,5.060,5.235
19.788,5.055,5.225
19.792,5.050,5.235
19.796,5.075,5.255
19.800,5.080,5.250
19.804,5.075,5.240
19.808,5.065,5.255
19.812,5.085,5.270
19.816,5.090,5.285
19.820,5.095,5.275
19.824,5.080,5.280
19.828,5.095,5.300
19.832,5.120,5.300
19.836,5.115,5.305
19.840,5.105,5.300
19.844,5.100,5.325
19.848,5.115,5.330
19.852,5.125,5.335
19.856,5.120,5.325
19.860,5.130,5.350
19.864,5.150,5.365
19.868,5.140,5.365
19.872,5.135,5.360
19.876,5.140,5.380
19.880,5.160,5.395
19.884,5.155,5.395
19.888,5.150,5.405
19.892,5.155,5.415
19.896,5.175,5.425
19.900,5.180,5.435
19.904,5.165,5.435
19.908,5.165,5.450
19.912,5.175,5.460
19.916,5.180,5.470
19.920,5.165,5.455
19.924,5.160,5.470
19.928,5.155,5.495
19.932,5.165,5.485
19.936,5.150,5.485
19.940,5.135,5.475
19.944,5.135,5.495
19.948,5.135,5.495
19.952,5.120,5.485
19.956,5.100,5.465
19.960,5.095,5.485
19.964,5.090,5.485
19.968,5.085,5.475
19.972,5.065,5.455
19.976,5.060,5.460
19.980,5.055,5.455
19.984,5.045,5.440
19.988,5.015,5.415
19.992,5.010,5.400
19.996,5.005,5.400
20.000,5.010,5.400
20.004,4.985,5.365
20.008,4.980,5.360
20.012,4.970,5.355
20.016,4.970,5.345
20.020,4.960,5.335
20.024,4.955,5.320
20.028,4.965,5.340
20.032,4.970,5.310
20.036,4.955,5.300
20.040,4.930,5.290
20.044,4.945,5.285
20.048,4.950,5.285
20.052,4.940,5.270
20.056,4.935,5.260
20.060,4.930,5.260
20.064,4.940,5.270
20.068,4.935,5.260
20.072,4.925,5.245
20.076,4.920,5.240
20.080,4.935,5.250
20.084,4.945,5.245
20.088,4.930,5.230
20.092,4.930,5.245
20.096,4.935,5.260
20.100,4.945,5.260
20.104,4.930,5.230
20.108,4.925,5.230
20.112,4.935,5.255
20.116,4.945,5.240
20.120,4.935,5.220
20.124,4.925,5.225
20.128,4.935,5.230
20.132,4.940,5.235
20.136,4.935,5.225
20.140,4.930,5.220
20.144,4.925,5.235
20.148,4.915,5.220
20.152,4.920,5.225
20.156,4.900,5.215
20.160,4.905,5.225
20.164,4.910,5.235
20.168,4.905,5.225
20.172,4.905,5.215
20.176,4.905,5.215
20.180,4.920,5.230
20.184,4.920,5.220
20.188,4.895,5.215
20.192,4.880,5.220
20.196,4.905,5.225
20.200,4.915,5.220
20.204,4.890,5.205
20.208,4.885,5.200
20.212,4.885,5.215
20.216,4.895,5.210
20.220,4.875,5.195
20.224,4.875,5.195
20.228,4.885,5.205
20.232,4.885,5.205
20.236,4.885,5.195
20.240,4.860,5.190
20.244,4.860,5.200
20.248,4.885,5.200
20.252,4.870,5.185
20.256,4.855,5.175
20.260,4.860,5.185
20.264,4.875,5.190
20.268,4.870,5.190
20.272,4.855,5.175
20.276,4.855,5.190
20.280,4.875,5.190
20.284,4.880,5.190
20.288,4.870,5.165
20.292,4.865,5.165
20.296,4.880,5.185
20.300,4.875,5.180
20.304,4.860,5.170
20.308,4.860,5.170
20.312,4.865,5.180
20.316,4.870,5.185
20.320,4.860,5.180
20.324,4.855,5.175
20.328,4.870,5.200
20.332,4.880,5.205
20.336,4.885,5.180
20.340,4.895,5.185
20.344,4.910,5.215
20.348,5.000,5.225
20.352,5.265,5.265
20.356,5.785,5.530
20.360,5.675,5.970
20.364,5.205,5.815
20.368,5.090,5.480
20.372,5.095,5.420
20.376,5.080,5.405
20.380,5.055,5.380
20.384,5.040,5.365
20.388,4.995,5.340
20.392,4.940,5.315
20.396,4.905,5.280
20.400,4.900,5.265
20.404,4.820,5.220
20.408,4.790,5.215
20.412,4.760,5.215
20.416,4.730,5.200
20.420,4.665,5.175
20.424,4.610,5.160
20.428,4.560,5.140
20.432,4.480,5.105
20.436,4.365,5.075
20.440,4.290,5.050
20.444,4.260,5.035
20.448,4.240,5.015
20.452,4.225,4.960
20.456,4.230,4.890
20.460,4.250,4.840
20.464,4.275,4.780
20.468,4.300,4.735
20.472,4.315,4.685
20.476,4.350,4.655
20.480,4.425,4.600
20.484,4.485,4.545
20.488,4.550,4.465
20.492,4.635,4.430
20.496,4.710,4.475
20.500,4.730,4.495
20.504,4.790,4.575
20.508,4.835,4.680
20.512,4.865,4.800
20.516,4.885,4.880
20.520,4.885,4.925
20.524,4.890,4.960
20.528,4.915,5.000
20.532,4.930,5.025
20.536,4.930,5.025
20.540,4.920,5.030
20.544,4.930,5.055
20.548,4.930,5.065
20.552,4.920,5.085
20.556,4.900,5.090
20.560,4.930,5.125
20.564,4.980,5.170
20.568,4.995,5.180
20.572,5.000,5.205
20.576,5.015,5.225
20.580,5.045,5.235
20.584,5.045,5.235
20.588,5.030,5.235
20.592,5.035,5.250
20.596,5.060,5.265
20.600,5.065,5.260
20.604,5.065,5.260
20.608,5.055,5.270
20.612,5.080,5.280
20.616,5.080,5.290
20.620,5.085,5.280
20.624,5.075,5.295
20.628,5.085,5.305
20.632,5.090,5.310
20.636,5.095,5.305
20.640,5.095,5.310
20.644,5.095,5.325
20.648,5.090,5.335
20.652,5.090,5.340
20.656,5.090,5.340
20.660,5.120,5.360
20.664,5.130,5.380
20.668,5.140,5.380
20.672,5.130,5.375
20.676,5.130,5.390
20.680,5.145,5.410
20.684,5.155,5.410
20.688,5.140,5.415
20.692,5.130,5.425
20.696,5.135,5.455
20.700,5.135,5.460
20.704,5.130,5.455
20.708,5.135,5.465
20.712,5.160,5.490
20.716,5.150,5.500
20.720,5.115,5.495
20.724,5.120,5.505
20.728,5.145,5.520
20.732,5.150,5.530
20.736,5.145,5.525
20.740,5.135,5.530
20.744,5.125,5.540
20.748,5.125,5.545
20.752,5.120,5.525
20.756,5.090,5.515
20.760,5.080,5.525
20.764,5.080,5.535
20.768,5.095,5.515
20.772,5.055,5.500
20.776,5.030,5.495
20.780,5.035,5.480
20.784,5.030,5.475
20.788,5.015,5.450
20.792,5.010,5.445
20.796,5.020,5.440
20.800,5.015,5.430
20.804,4.975,5.395
20.808,4.965,5.380
20.812,4.960,5.385
20.816,4.965,5.375
20.820,4.940,5.340
20.824,4.940,5.335
20.828,4.950,5.345
20.832,4.945,5.325
20.836,4.935,5.305
20.840,4.920,5.295
20.844,4.925,5.295
20.848,4.935,5.305
20.852,4.920,5.275
20.856,4.915,5.260
20.860,4.910,5.270
20.864,4.910,5.280
20.868,4.915,5.260
20.872,4.900,5.250
20.876,4.895,5.260
20.880,4.910,5.260
20.884,4.915,5.255
20.888,4.895,5.245
20.892,4.885,5.245
20.896,4.890,5.255
20.900,4.890,5.260
20.904,4.895,5.245
20.908,4.885,5.245
20.912,4.890,5.255
20.916,4.890,5.240
20.920,4.880,5.225
20.924,4.865,5.230
20.928,4.875,5.240
20.932,4.875,5.235
20.936,4.875,5.235
20.940,4.865,5.225
20.944,4.875,5.235
20.948,4.870,5.235
20.952,4.865,5.230
20.956,4.860,5.230
20.960,4.860,5.235
20.964,4.875,5.240
20.968,4.885,5.225
20.972,4.845,5.215
20.976,4.855,5.225
20.980,4.865,5.230
20.984,4.870,5.220
20.988,4.855,5.210
20.992,4.855,5.215
20.996,4.855,5.225
21.000,4.860,5.230
21.004,4.845,5.205
21.008,4.845,5.205
21.012,4.850,5.210
21.016,4.860,5.215
21.020,4.850,5.190
21.024,4.850,5.195
21.028,4.860,5.200
21.032,4.860,5.210
21.036,4.855,5.195
21.040,4.850,5.190
21.044,4.855,5.200
21.048,4.850,5.200
21.052,4.860,5.195
21.056,4.840,5.180
21.060,4.845,5.190
21.064,4.870,5.195
21.068,4.860,5.195
21.072,4.855,5.180
21.076,4.845,5.195
21.080,4.865,5.200
21.084,4.870,5.190
21.088,4.860,5.185
21.092,4.855,5.185
21.096,4.860,5.205
21.100,4.860,5.195
21.104,4.850,5.190
21.108,4.855,5.195
21.112,4.875,5.205
21.116,4.890,5.205
21.120,4.905,5.210
21.124,4.945,5.215
21.128,5.140,5.255
21.132,5.680,5.355
21.136,5.975,5.750
21.140,5.440,5.925
21.144,5.100,5.610
21.148,5.115,5.440
21.152,5.110,5.420
21.156,5.055,5.395
21.160,5.035,5.380
21.164,5.030,5.370
21.168,5.000,5.335
21.172,4.965,5.280
21.176,4.930,5.265
21.180,4.900,5.235
21.184,4.865,5.220
21.188,4.800,5.195
21.192,4.760,5.185
21.196,4.710,5.165
21.200,4.695,5.155
21.204,4.590,5.095
21.208,4.470,5.075
21.212,4.380,5.070
21.216,4.325,5.045
21.220,4.270,5.010
21.224,4.225,4.960
21.228,4.235,4.925
21.232,4.240,4.840
21.236,4.225,4.780
21.240,4.240,4.740
21.244,4.250,4.700
21.248,4.285,4.660
21.252,4.310,4.625
21.256,4.345,4.570
21.260,4.410,4.505
21.264,4.500,4.450
21.268,4.565,4.465
21.272,4.610,4.515
21.276,4.670,4.600
21.280,4.735,4.690
21.284,4.775,4.790
21.288,4.790,4.880
21.292,4.800,4.965
21.296,4.830,5.035
21.300,4.840,5.050
21.304,4.840,5.070
21.308,4.850,5.090
21.312,4.865,5.100
21.316,4.890,5.110
21.320,4.900,5.110
21.324,4.900,5.125
21.328,4.920,5.160
21.332,4.945,5.170
21.336,4.955,5.185
21.340,4.955,5.220
21.344,4.980,5.255
21.348,5.015,5.270
21.352,5.030,5.255
21.356,5.040,5.250
21.360,5.060,5.280
21.364,5.070,5.305
21.368,5.065,5.300
21.372,5.040,5.290
21.376,5.030,5.305
21.380,5.045,5.300
21.384,5.050,5.295
21.388,5.030,5.290
21.392,5.020,5.305
21.396,5.030,5.315
21.400,5.030,5.310
21.404,5.025,5.295
21.408,5.030,5.310
21.412,5.045,5.325
21.416,5.050,5.330
21.420,5.045,5.315
21.424,5.040,5.320
21.428,5.060,5.345
21.432,5.060,5.355
21.436,5.065,5.335
21.440,5.050,5.345
21.444,5.055,5.360
21.448,5.065,5.365
21.452,5.065,5.380
21.456,5.070,5.375
21.460,5.085,5.400
21.464,5.090,5.410
21.468,5.090,5.410
21.472,5.080,5.415
21.476,5.095,5.435
21.480,5.105,5.440
21.484,5.095,5.450
21.488,5.100,5.450
21.492,5.100,5.450
21.496,5.110,5.480
21.500,5.115,5.475
21.504,5.100,5.475
21.508,5.090,5.485
21.512,5.095,5.490
21.516,5.110,5.500
21.520,5.095,5.480
21.524,5.075,5.480
21.528,5.070,5.495
21.532,5.070,5.480
21.536,5.055,5.475
21.540,5.035,5.465
21.544,5.040,5.475
21.548,5.035,5.465
21.552,5.020,5.445
21.556,4.985,5.435
21.560,4.970,5.440
21.564,4.970,5.430
21.568,4.965,5.400
21.572,4.935,5.380
21.576,4.935,5.385
21.580,4.935,5.370
21.584,4.935,5.360
21.588,4.915,5.335
21.592,4.900,5.340
21.596,4.910,5.335
21.600,4.910,5.330
21.604,4.895,5.300
21.608,4.880,5.305
21.612,4.880,5.295
21.616,4.880,5.285
21.620,4.870,5.260
21.624,4.850,5.265
21.628,4.855,5.270
21.632,4.860,5.270
21.636,4.850,5.260
21.640,4.840,5.255
21.644,4.835,5.250
21.648,4.850,5.250
21.652,4.840,5.235
21.656,4.815,5.225
21.660,4.830,5.240
21.664,4.835,5.245
21.668,4.825,5.240
21.672,4.815,5.220
21.676,4.820,5.235
21.680,4.825,5.235
21.684,4.810,5.230
21.688,4.800,5.220
21.692,4.800,5.210
21.696,4.810,5.225
21.700,4.815,5.220
21.704,4.790,5.210
21.708,4.795,5.225
21.712,4.805,5.225
21.716,4.815,5.220
21.720,4.815,5.195
21.724,4.800,5.205
21.728,4.800,5.210
21.732,4.795,5.215
21.736,4.795,5.205
21.740,4.775,5.190
21.744,4.790,5.210
21.748,4.805,5.215
21.752,4.800,5.205
21.756,4.785,5.185
21.760,4.780,5.200
21.764,4.785,5.200
21.768,4.785,5.200
21.772,4.775,5.190
21.776,4.765,5.195
21.780,4.780,5.205
21.784,4.775,5.200
21.788,4.775,5.180
21.792,4.775,5.185
21.796,4.785,5.190
21.800,4.790,5.190
21.804,4.790,5.170
21.808,4.775,5.180
21.812,4.785,5.185
21.816,4.790,5.180
21.820,4.775,5.175
21.824,4.775,5.170
21.828,4.790,5.180
21.832,4.790,5.175
21.836,4.785,5.160
21.840,4.780,5.165
21.844,4.790,5.175
21.848,4.800,5.175
21.852,4.810,5.165
21.856,4.790,5.150
21.860,4.800,5.175
21.864,4.815,5.175
21.868,4.820,5.180
21.872,4.805,5.170
21.876,4.810,5.170
21.880,4.825,5.180
21.884,4.840,5.195
21.888,4.860,5.185
21.892,4.905,5.205
21.896,5.155,5.260
21.900,5.265,5.285
21.904,5.760,5.905
21.908,5.255,5.890
21.912,5.050,5.545
21.916,5.070,5.430
21.920,5.050,5.400
21.924,5.010,5.375
21.928,5.000,5.375
21.932,5.000,5.365
21.936,4.985,5.330
21.940,4.955,5.300
21.944,4.925,5.275
21.948,4.895,5.255
21.952,4.875,5.230
21.956,4.830,5.235
21.960,4.800,5.225
21.964,4.765,5.205
21.968,4.720,5.180
21.972,4.655,5.150
21.976,4.585,5.150
21.980,4.490,5.135
21.984,4.410,5.105
21.988,4.350,5.090
21.992,4.295,5.075
21.996,4.275,5.020
22.000,4.280,4.995
22.004,4.250,4.875
22.008,4.255,4.840
22.012,4.275,4.805
22.016,4.280,4.765
22.020,4.280,4.690
22.024,4.310,4.645
22.028,4.360,4.595
22.032,4.435,4.515
22.036,4.515,4.490
22.040,4.555,4.525
22.044,4.620,4.605
22.048,4.690,4.670
22.052,4.725,4.740
22.056,4.745,4.825
22.060,4.770,4.910
22.064,4.800,4.975
22.068,4.815,4.975
22.072,4.815,4.995
22.076,4.840,5.015
22.080,4.865,5.030
22.084,4.865,5.040
22.088,4.865,5.035
22.092,4.855,5.045
22.096,4.860,5.065
22.100,4.865,5.070
22.104,4.870,5.075
22.108,4.860,5.095
22.112,4.890,5.130
22.116,4.915,5.155
22.120,4.915,5.165
22.124,4.925,5.185
22.128,4.940,5.205
22.132,4.965,5.215
22.136,4.965,5.210
22.140,4.950,5.215
22.144,4.945,5.230
22.148,4.970,5.235
22.152,4.970,5.235
22.156,4.960,5.230
22.160,4.965,5.260
22.164,4.970,5.275
22.168,4.980,5.265
22.172,4.965,5.260
22.176,4.970,5.295
22.180,4.980,5.300
22.184,4.970,5.300
22.188,4.965,5.310
22.192,4.975,5.320
22.196,5.000,5.330
22.200,5.010,5.330
22.204,5.010,5.325
22.208,5.000,5.330
22.212,5.040,5.335
22.216,5.065,5.350
22.220,5.065,5.340
22.224,5.070,5.350
22.228,5.090,5.355
22.232,5.105,5.365
22.236,5.110,5.365
22.240,5.095,5.380
22.244,5.120,5.395
22.248,5.150,5.405
22.252,5.155,5.410
22.256,5.150,5.425
22.260,5.165,5.430
22.264,5.180,5.460
22.268,5.160,5.460
22.272,5.155,5.450
22.276,5.155,5.465
22.280,5.150,5.470
22.284,5.140,5.485
22.288,5.135,5.480
22.292,5.125,5.480
22.296,5.140,5.485
22.300,5.135,5.490
22.304,5.110,5.490
22.308,5.105,5.485
22.312,5.115,5.510
22.316,5.105,5.505
22.320,5.085,5.480
22.324,5.065,5.485
22.328,5.070,5.490
22.332,5.075,5.480
22.336,5.055,5.475
22.340,5.040,5.465
22.344,5.030,5.465
22.348,5.025,5.460
22.352,5.015,5.435
22.356,4.985,5.435
22.360,4.975,5.425
22.364,4.965,5.420
22.368,4.955,5.405
22.372,4.950,5.380
22.376,4.930,5.380
22.380,4.940,5.375
22.384,4.945,5.355
22.388,4.920,5.340
22.392,4.920,5.335
22.396,4.920,5.320
22.400,4.925,5.310
22.404,4.905,5.300
22.408,4.895,5.285
22.412,4.895,5.300
22.416,4.895,5.290
22.420,4.885,5.265
22.424,4.875,5.270
22.428,4.880,5.275
22.432,4.885,5.255
22.436,4.875,5.250
22.440,4.855,5.235
22.444,4.870,5.245
22.448,4.860,5.235
22.452,4.855,5.230
22.456,4.850,5.220
22.460,4.850,5.220
22.464,4.865,5.230
22.468,4.845,5.215
22.472,4.835,5.210
22.476,4.845,5.215
22.480,4.840,5.220
22.484,4.845,5.220
22.488,4.840,5.205
22.492,4.830,5.200
22.496,4.830,5.210
22.500,4.840,5.205
22.504,4.825,5.205
22.508,4.820,5.205
22.512,4.830,5.215
22.516,4.830,5.210
22.520,4.820,5.190
22.524,4.815,5.190
22.528,4.810,5.215
22.532,4.810,5.195
22.536,4.805,5.200
22.540,4.800,5.190
22.544,4.810,5.205
22.548,4.810,5.195
22.552,4.810,5.190
22.556,4.795,5.185
22.560,4.795,5.190
22.564,4.800,5.195
22.568,4.800,5.185
22.572,4.790,5.180
22.576,4.780,5.185
22.580,4.795,5.185
22.584,4.805,5.185
22.588,4.780,5.180
22.592,4.770,5.175
22.596,4.780,5.190
22.600,4.775,5.180
22.604,4.775,5.165
22.608,4.770,5.175
22.612,4.790,5.175
22.616,4.775,5.170
22.620,4.780,5.160
22.624,4.760,5.160
22.628,4.775,5.180
22.632,4.790,5.175
22.636,4.780,5.170
22.640,4.760,5.165
22.644,4.770,5.175
22.648,4.780,5.180
22.652,4.775,5.165
22.656,4.760,5.155
22.660,4.770,5.180
22.664,4.780,5.175
22.668,4.765,5.170
22.672,4.755,5.165
22.676,4.770,5.165
22.680,4.780,5.170
22.684,4.780,5.170
22.688,4.760,5.160
22.692,4.780,5.165
22.696,4.775,5.175
22.700,4.780,5.180
22.704,4.770,5.150
22.708,4.770,5.165
22.712,4.780,5.180
22.716,4.795,5.170
22.720,4.800,5.170
22.724,4.815,5.170
22.728,4.885,5.200
22.732,5.200,5.225
22.736,5.795,5.365
22.740,5.730,5.830
22.744,5.215,5.875
22.748,5.035,5.535
22.752,5.045,5.405
22.756,5.005,5.390
22.760,4.975,5.375
22.764,4.965,5.375
22.768,4.955,5.345
22.772,4.910,5.315
22.776,4.895,5.290
22.780,4.875,5.250
22.784,4.835,5.240
22.788,4.785,5.220
22.792,4.760,5.215
22.796,4.725,5.220
22.800,4.715,5.210
22.804,4.640,5.160
22.808,4.585,5.150
22.812,4.505,5.120
22.816,4.410,5.100
22.820,4.335,5.085
22.824,4.290,5.070
22.828,4.250,5.060
22.832,4.220,5.000
22.836,4.210,4.925
22.840,4.200,4.870
22.844,4.230,4.845
22.848,4.240,4.790
22.852,4.230,4.720
22.856,4.235,4.670
22.860,4.280,4.620
22.864,4.345,4.555
22.868,4.410,4.480
22.872,4.480,4.450
22.876,4.555,4.515
22.880,4.625,4.590
22.884,4.680,4.660
22.888,4.710,4.740
22.892,4.740,4.840
22.896,4.765,4.915
22.900,4.770,4.935
22.904,4.785,4.985
22.908,4.785,5.000
22.912,4.800,5.025
22.916,4.825,5.025
22.920,4.835,5.030
22.924,4.820,5.035
22.928,4.835,5.050
22.932,4.850,5.065
22.936,4.845,5.065
22.940,4.835,5.090
22.944,4.870,5.120
22.948,4.900,5.135
22.952,4.910,5.160
22.956,4.905,5.175
22.960,4.920,5.200
22.964,4.945,5.210
22.968,4.960,5.215
22.972,4.945,5.210
22.976,4.945,5.225
22.980,4.975,5.240
22.984,4.980,5.240
22.988,4.975,5.250
22.992,4.975,5.260
22.996,4.980,5.265
23.000,4.980,5.270
23.004,4.985,5.260
23.008,4.995,5.275
23.012,4.995,5.295
23.016,5.000,5.295
23.020,4.990,5.290
23.024,4.990,5.300
23.028,5.015,5.310
23.032,5.040,5.320
23.036,5.050,5.325
23.040,5.035,5.335
23.044,5.035,5.350
23.048,5.055,5.365
23.052,5.060,5.355
23.056,5.070,5.360
23.060,5.090,5.380
23.064,5.090,5.395
23.068,5.095,5.395
23.072,5.090,5.395
23.076,5.095,5.425
23.080,5.100,5.435
23.084,5.100,5.445
23.088,5.100,5.440
23.092,5.105,5.455
23.096,5.120,5.485
23.100,5.130,5.490
23.104,5.125,5.490
23.108,5.115,5.515
23.112,5.120,5.540
23.116,5.140,5.550
23.120,5.140,5.555
23.124,5.130,5.570
23.128,5.125,5.595
23.132,5.130,5.595
23.136,5.120,5.590
23.140,5.110,5.590
23.144,5.110,5.600
23.148,5.115,5.600
23.152,5.100,5.580
23.156,5.075,5.575
23.160,5.075,5.585
23.164,5.080,5.575
23.168,5.080,5.560
23.172,5.060,5.540
23.176,5.055,5.530
23.180,5.060,5.525
23.184,5.060,5.515
23.188,5.030,5.495
23.192,5.020,5.470
23.196,5.025,5.475
23.200,5.035,5.470
23.204,5.020,5.430
23.208,5.010,5.425
23.212,5.015,5.430
23.216,4.995,5.410
23.220,4.965,5.375
23.224,4.940,5.365
23.228,4.935,5.355
23.232,4.935,5.340
23.236,4.920,5.325
23.240,4.905,5.315
23.244,4.895,5.305
23.248,4.905,5.295
23.252,4.880,5.280
23.256,4.885,5.260
23.260,4.890,5.270
23.264,4.895,5.270
23.268,4.885,5.250
23.272,4.860,5.235
23.276,4.855,5.245
23.280,4.875,5.250
23.284,4.870,5.230
23.288,4.855,5.210
23.292,4.825,5.225
23.296,4.835,5.230
23.300,4.840,5.230
23.304,4.845,5.210
23.308,4.835,5.210
23.312,4.840,5.215
23.316,4.830,5.220
23.320,4.810,5.190
23.324,4.810,5.195
23.328,4.840,5.220
23.332,4.855,5.215
23.336,4.845,5.210
23.340,4.815,5.200
23.344,4.810,5.215
23.348,4.835,5.220
23.352,4.825,5.205
23.356,4.800,5.200
23.360,4.815,5.210
23.364,4.850,5.225
23.368,4.850,5.205
23.372,4.835,5.185
23.376,4.825,5.190
23.380,4.845,5.200
23.384,4.840,5.195
23.388,4.825,5.185
23.392,4.830,5.190
23.396,4.845,5.195
23.400,4.845,5.185
23.404,4.825,5.170
23.408,4.815,5.185
23.412,4.820,5.185
23.416,4.825,5.185
23.420,4.820,5.160
23.424,4.810,5.165
23.428,4.815,5.185
23.432,4.805,5.175
23.436,4.810,5.170
23.440,4.805,5.170
23.444,4.815,5.180
23.448,4.825,5.170
23.452,4.800,5.165
23.456,4.785,5.155
23.460,4.805,5.170
23.464,4.830,5.175
23.468,4.830,5.165
23.472,4.805,5.155
23.476,4.805,5.160
23.480,4.825,5.170
23.484,4.830,5.165
23.488,4.815,5.150
23.492,4.825,5.175
23.496,4.850,5.175
23.500,4.855,5.175
23.504,4.830,5.160
23.508,4.815,5.160
23.512,4.835,5.190
23.516,4.865,5.205
23.520,4.875,5.225
23.524,4.895,5.250
23.528,4.970,5.285
23.532,5.055,5.310
23.536,5.160,5.325
23.540,5.245,5.375
23.544,5.365,5.420
23.548,5.535,5.450
23.552,5.740,5.460
23.556,5.945,5.505
23.560,6.035,5.565
23.564,6.320,5.675
23.568,6.650,5.995
23.572,6.320,6.010
23.576,5.835,5.480
23.580,5.590,5.085
23.584,5.395,4.935
23.588,5.155,4.860
23.592,4.950,4.865
23.596,4.860,4.925
23.600,4.845,4.945
23.604,4.795,5.050
23.608,4.780,5.110
23.612,4.780,5.150
23.616,4.805,5.160
23.620,4.820,5.160
23.624,4.805,5.170
23.628,4.810,5.175
23.632,4.810,5.160
23.636,4.805,5.135
23.640,4.790,5.120
23.644,4.790,5.135
23.648,4.805,5.125
23.652,4.790,5.115
23.656,4.780,5.110
23.660,4.775,5.110
23.664,4.775,5.115
23.668,4.770,5.100
23.672,4.755,5.090
23.676,4.745,5.105
23.680,4.745,5.105
23.684,4.750,5.090
23.688,4.735,5.075
23.692,4.725,5.090
23.696,4.730,5.085
23.700,4.740,5.085
23.704,4.715,5.070
23.708,4.700,5.065
23.712,4.710,5.080
23.716,4.715,5.075
23.720,4.705,5.055
23.724,4.680,5.055
23.728,4.685,5.060
23.732,4.685,5.045
23.736,4.680,5.035
23.740,4.660,5.030
23.744,4.660,5.035
23.748,4.665,5.035
23.752,4.650,5.020
23.756,4.630,5.020
23.760,4.640,5.020
23.764,4.655,5.020
23.768,4.650,5.010
23.772,4.620,5.005
23.776,4.610,5.010
23.780,4.630,5.015
23.784,4.630,5.010
23.788,4.615,5.000
23.792,4.605,5.015
23.796,4.625,5.010
23.800,4.635,5.000
23.804,4.615,4.995
23.808,4.615,5.015
23.812,4.635,5.025
23.816,4.635,5.020
23.820,4.640,5.020
23.824,4.645,5.020
23.828,4.655,5.055
23.832,4.670,5.055
23.836,4.670,5.060
23.840,4.665,5.050
23.844,4.685,5.080
23.848,4.710,5.090
23.852,4.715,5.090
23.856,4.720,5.100
23.860,4.755,5.125
23.864,4.775,5.135
23.868,4.785,5.145
23.872,4.790,5.145
23.876,4.805,5.165
23.880,4.840,5.180
23.884,4.850,5.185
23.888,4.845,5.185
23.892,4.855,5.210
23.896,4.875,5.210
23.900,4.890,5.215
23.904,4.870,5.215
23.908,4.865,5.225
23.912,4.885,5.235
23.916,4.885,5.235
23.920,4.885,5.210
23.924,4.875,5.225
23.928,4.885,5.230
23.932,4.895,5.230
23.936,4.895,5.225
23.940,4.870,5.220
23.944,4.880,5.220
23.948,4.890,5.230
23.952,4.885,5.210
23.956,4.865,5.210
23.960,4.875,5.220
23.964,4.890,5.215
23.968,4.880,5.200
23.972,4.870,5.190
23.976,4.870,5.210
23.980,4.885,5.210
23.984,4.885,5.195
23.988,4.875,5.185
23.992,4.875,5.190
23.996,4.880,5.200
24.000,4.890,5.210
24.004,4.870,5.190
24.008,4.860,5.195
24.012,4.875,5.210
24.016,4.875,5.200
24.020,4.865,5.180
24.024,4.850,5.180
24.028,4.855,5.195
24.032,4.865,5.185
24.036,4.860,5.180
24.040,4.840,5.175
24.044,4.845,5.190
24.048,4.865,5.190
24.052,4.860,5.180
24.056,4.850,5.170
24.060,4.845,5.190
24.064,4.855,5.190
24.068,4.860,5.180
24.072,4.840,5.180
24.076,4.850,5.175
24.080,4.855,5.190
24.084,4.845,5.190
24.088,4.845,5.170
24.092,4.835,5.185
24.096,4.850,5.185
24.100,4.855,5.180
24.104,4.830,5.180
24.108,4.835,5.190
24.112,4.845,5.200
24.116,4.835,5.200
24.120,4.835,5.205
24.124,4.825,5.200
24.128,4.830,5.205
24.132,4.830,5.215
24.136,4.835,5.205
24.140,4.815,5.190
24.144,4.830,5.200
24.148,4.855,5.195
24.152,4.855,5.185
24.156,4.855,5.170
24.160,4.865,5.180
24.164,4.880,5.180
24.168,4.890,5.170
24.172,4.880,5.165
24.176,4.880,5.180
24.180,4.890,5.185
24.184,4.905,5.175
24.188,4.920,5.165
24.192,4.920,5.160
24.196,4.945,5.180
24.200,4.950,5.175
24.204,4.930,5.170
24.208,4.915,5.165
24.212,4.895,5.170
24.216,4.905,5.160
24.220,4.900,5.155
24.224,4.880,5.155
24.228,4.880,5.160
24.232,4.885,5.140
24.236,4.875,5.135
24.240,4.860,5.125
24.244,4.865,5.145
24.248,4.865,5.145
24.252,4.860,5.140
24.256,4.865,5.135
24.260,4.870,5.140
24.264,4.870,5.140
24.268,4.865,5.130
24.272,4.855,5.125
24.276,4.855,5.135
24.280,4.865,5.145
24.284,4.870,5.135
24.288,4.845,5.135
24.292,4.855,5.145
24.296,4.870,5.145
24.300,4.875,5.140
24.304,4.865,5.135
24.308,4.865,5.140
24.312,4.875,5.150
24.316,4.885,5.150
24.320,4.875,5.140
24.324,4.870,5.135
24.328,4.885,5.160
24.332,4.890,5.165
24.336,4.900,5.155
24.340,4.880,5.160
24.344,4.895,5.195
24.348,4.915,5.210
24.352,4.960,5.225
24.356,5.030,5.220
24.360,5.140,5.265
24.364,5.255,5.285
24.368,5.365,5.310
24.372,5.545,5.350
24.376,6.160,5.540
24.380,6.560,6.010
24.384,6.400,6.105
24.388,6.340,5.830
24.392,6.400,5.720
24.396,6.225,5.605
24.400,6.140,5.540
24.404,5.655,5.125
24.408,5.450,4.965
24.412,5.250,4.895
24.416,5.050,4.870
24.420,4.895,4.895
24.424,4.840,4.955
24.428,4.830,5.035
24.432,4.825,5.085
24.436,4.815,5.130
24.440,4.810,5.145
24.444,4.820,5.170
24.448,4.840,5.170
24.452,4.825,5.165
24.456,4.805,5.155
24.460,4.820,5.155
24.464,4.830,5.145
24.468,4.815,5.135
24.472,4.795,5.125
24.476,4.800,5.135
24.480,4.805,5.130
24.484,4.805,5.125
24.488,4.785,5.110
24.492,4.785,5.125
24.496,4.790,5.125
24.500,4.795,5.125
24.504,4.770,5.110
24.508,4.770,5.115
24.512,4.780,5.120
24.516,4.775,5.105
24.520,4.780,5.090
24.524,4.765,5.095
24.528,4.770,5.105
24.532,4.760,5.100
24.536,4.755,5.090
24.540,4.735,5.085
24.544,4.730,5.090
24.548,4.735,5.095
24.552,4.730,5.080
24.556,4.710,5.070
24.560,4.725,5.095
24.564,4.735,5.095
24.568,4.720,5.090
24.572,4.710,5.080
24.576,4.705,5.075
24.580,4.710,5.080
24.584,4.705,5.075
24.588,4.705,5.060
24.592,4.695,5.070
24.596,4.705,5.075
24.600,4.710,5.070
24.604,4.690,5.070
24.608,4.680,5.065
24.612,4.695,5.065
24.616,4.705,5.065
24.620,4.685,5.060
24.624,4.685,5.050
24.628,4.695,5.065
24.632,4.700,5.060
24.636,4.680,5.050
24.640,4.665,5.055
24.644,4.685,5.070
24.648,4.710,5.065
24.652,4.700,5.055
24.656,4.690,5.055
24.660,4.695,5.075
24.664,4.695,5.080
24.668,4.705,5.080
24.672,4.715,5.070
24.676,4.730,5.075
24.680,4.735,5.095
24.684,4.745,5.100
24.688,4.745,5.090
24.692,4.755,5.100
24.696,4.770,5.120
24.700,4.780,5.120
24.704,4.785,5.130
24.708,4.790,5.140
24.712,4.815,5.165
24.716,4.830,5.165
24.720,4.830,5.160
24.724,4.835,5.175
24.728,4.850,5.185
24.732,4.870,5.195
24.736,4.865,5.195
24.740,4.865,5.200
24.744,4.895,5.225
24.748,4.910,5.225
24.752,4.910,5.220
24.756,4.895,5.220
24.760,4.920,5.235
24.764,4.940,5.240
24.768,4.930,5.225
24.772,4.920,5.215
24.776,4.925,5.235
24.780,4.935,5.240
24.784,4.925,5.225
24.788,4.925,5.230
24.792,4.940,5.230
24.796,4.945,5.240
24.800,4.950,5.235
24.804,4.920,5.205
24.808,4.910,5.210
24.812,4.925,5.225
24.816,4.940,5.220
24.820,4.925,5.205
24.824,4.915,5.200
24.828,4.925,5.220
24.832,4.930,5.215
24.836,4.925,5.205
24.840,4.895,5.200
24.844,4.900,5.205
24.848,4.925,5.215
24.852,4.915,5.195
24.856,4.895,5.185
24.860,4.905,5.205
24.864,4.920,5.205
24.868,4.915,5.190
24.872,4.895,5.195
24.876,4.895,5.195
24.880,4.905,5.205
24.884,4.910,5.200
24.888,4.895,5.190
24.892,4.900,5.190
24.896,4.905,5.210
24.900,4.900,5.205
24.904,4.890,5.200
24.908,4.895,5.200
24.912,4.900,5.215
24.916,4.910,5.215
24.920,4.915,5.195
24.924,4.905,5.205
24.928,4.905,5.215
24.932,4.930,5.215
24.936,4.925,5.210
24.940,4.910,5.195
24.944,4.920,5.210
24.948,4.930,5.210
24.952,4.935,5.205
24.956,4.910,5.205
24.960,4.920,5.215
24.964,4.945,5.205
24.968,4.940,5.210
24.972,4.910,5.200
24.976,4.920,5.210
24.980,4.935,5.215
24.984,4.935,5.215
24.988,4.915,5.195
24.992,4.930,5.190
24.996,4.930,5.210
25.000,4.935,5.215
25.004,4.920,5.195
25.008,4.910,5.200
25.012,4.910,5.220
25.016,4.905,5.205
25.020,4.890,5.210
25.024,4.900,5.205
25.028,4.925,5.230
25.032,4.925,5.220
25.036,4.910,5.220
25.040,4.890,5.215
25.044,4.905,5.225
25.048,4.915,5.210
25.052,4.915,5.190
25.056,4.910,5.190
25.060,4.945,5.190
25.064,4.965,5.190
25.068,4.955,5.185
25.072,4.945,5.180
25.076,4.960,5.180
25.080,4.985,5.195
25.084,4.985,5.200
25.088,4.985,5.180
25.092,5.010,5.180
25.096,5.030,5.185
25.100,5.035,5.190
25.104,5.030,5.185
25.108,5.020,5.200
25.112,5.020,5.195
25.116,5.010,5.200
25.120,4.990,5.175
25.124,4.980,5.175
25.128,4.980,5.175
25.132,4.975,5.175
25.136,4.970,5.155
25.140,4.945,5.160
25.144,4.955,5.165
25.148,4.960,5.165
25.152,4.950,5.150
25.156,4.935,5.155
25.160,4.945,5.160
25.164,4.970,5.160
25.168,4.970,5.160
25.172,4.965,5.150
25.176,4.960,5.160
25.180,4.970,5.170
25.184,4.990,5.170
25.188,4.990,5.165
25.192,5.020,5.190
25.196,5.145,5.220
25.200,5.200,5.225
25.204,5.940,5.640
25.208,5.630,5.980
25.212,5.250,5.705
25.216,5.205,5.445
25.220,5.220,5.400
25.224,5.175,5.380
25.228,5.165,5.360
25.232,5.170,5.350
25.236,5.175,5.320
25.240,5.160,5.320
25.244,5.150,5.330
25.248,5.135,5.320
25.252,5.115,5.320
25.256,5.105,5.330
25.260,5.165,5.355
25.264,5.230,5.360
25.268,5.250,5.350
25.272,5.265,5.325
25.276,5.295,5.325
25.280,5.330,5.315
25.284,5.340,5.325
25.288,5.360,5.360
25.292,5.380,5.460
25.296,5.415,5.505
25.300,5.420,5.505
25.304,5.265,5.320
25.308,5.195,5.115
25.312,5.100,4.970
25.316,4.985,4.885
25.320,4.885,4.820
25.324,4.810,4.825
25.328,4.770,4.875
25.332,4.805,4.920
25.336,4.820,4.970
25.340,4.830,5.050
25.344,4.845,5.120
25.348,4.865,5.135
25.352,4.870,5.135
25.356,4.860,5.135
25.360,4.865,5.150
25.364,4.890,5.150
25.368,4.885,5.145
25.372,4.875,5.120
25.376,4.880,5.135
25.380,4.880,5.130
25.384,4.880,5.110
25.388,4.870,5.115
25.392,4.860,5.125
25.396,4.870,5.135
25.400,4.875,5.130
25.404,4.865,5.120
25.408,4.865,5.125
25.412,4.880,5.140
25.416,4.890,5.145
25.420,4.880,5.135
25.424,4.870,5.125
25.428,4.870,5.135
25.432,4.865,5.140
25.436,4.850,5.120
25.440,4.845,5.120
25.444,4.845,5.125
25.448,4.860,5.130
25.452,4.855,5.120
25.456,4.845,5.105
25.460,4.860,5.130
25.464,4.870,5.120
25.468,4.875,5.115
25.472,4.865,5.115
25.476,4.870,5.120
25.480,4.885,5.130
25.484,4.880,5.125
25.488,4.860,5.110
25.492,4.860,5.125
25.496,4.885,5.125
25.500,4.895,5.120
25.504,4.890,5.110
25.508,4.880,5.120
25.512,4.880,5.125
25.516,4.890,5.130
25.520,4.890,5.110
25.524,4.895,5.120
25.528,4.920,5.135
25.532,4.915,5.130
25.536,4.920,5.125
25.540,4.910,5.125
25.544,4.910,5.145
25.548,4.925,5.160
25.552,4.910,5.140
25.556,4.905,5.135
25.560,4.920,5.155
25.564,4.935,5.155
25.568,4.935,5.160
25.572,4.945,5.160
25.576,4.945,5.190
25.580,4.955,5.190
25.584,4.965,5.185
25.588,4.960,5.200
25.592,4.960,5.205
25.596,4.965,5.225
25.600,4.980,5.220
25.604,4.980,5.225
25.608,4.980,5.230
25.612,4.990,5.250
25.616,5.000,5.260
25.620,5.005,5.255
25.624,4.990,5.260
25.628,4.995,5.280
25.632,4.990,5.285
25.636,4.985,5.270
25.640,4.980,5.295
25.644,4.990,5.290
25.648,4.985,5.300
25.652,4.990,5.290
25.656,4.970,5.285
25.660,4.970,5.295
25.664,4.965,5.300
25.668,4.965,5.280
25.672,4.950,5.270
25.676,4.950,5.270
25.680,4.960,5.275
25.684,4.965,5.260
25.688,4.945,5.255
25.692,4.940,5.265
25.696,4.935,5.265
25.700,4.930,5.260
25.704,4.915,5.240
25.708,4.920,5.240
25.712,4.930,5.250
25.716,4.925,5.240
25.720,4.915,5.230
25.724,4.915,5.220
25.728,4.935,5.245
25.732,4.930,5.235
25.736,4.920,5.220
25.740,4.905,5.215
25.744,4.915,5.235
25.748,4.925,5.235
25.752,4.920,5.225
25.756,4.900,5.225
25.760,4.895,5.235
25.764,4.920,5.235
25.768,4.895,5.220
25.772,4.885,5.215
25.776,4.900,5.225
